epoch,train_loss,val_loss,test_loss,learning_rate,train_accuracy,train_f1_weighted,train_precision_weighted,train_recall_weighted,val_accuracy,val_f1_weighted,val_precision_weighted,val_recall_weighted,test_accuracy,test_f1_weighted,test_precision_weighted,test_recall_weighted,train_f1_MI,train_f1_NORM,train_precision_MI,train_precision_NORM,train_recall_MI,train_recall_NORM,val_f1_MI,val_f1_NORM,val_precision_MI,val_precision_NORM,val_recall_MI,val_recall_NORM,test_f1_MI,test_f1_NORM,test_precision_MI,test_precision_NORM,test_recall_MI,test_recall_NORM,train_loss_MI,train_loss_NORM,val_loss_MI,val_loss_NORM,test_loss_MI,test_loss_NORM
1,0.2723012320872162,0.25069156724767305,0.26149318405712085,0.1,0.8960105676523586,0.8960889079062444,0.8961849477491597,0.8960105676523586,0.89584285061672,0.896292726578733,0.8974367594255884,0.89584285061672,0.8975257033103604,0.8980056471665764,0.8993871097523971,0.8975257033103604,0.8646856053882874,0.9155585610269384,0.8612341359931519,0.9178540120390393,0.8681648502129097,0.9132745627093413,0.8677494199535963,0.9140919366993218,0.8468723464477781,0.9289680260386751,0.8896818316978888,0.8996847765622102,0.8714569160997733,0.9148036821341349,0.847904026475455,0.9319617224880383,0.8963556851311953,0.8982660025825493,0.2910746584164921,0.24910676434868734,0.264165174487951,0.23697692547401372,0.27646530489977744,0.24644187280385615
2,0.2128706982245266,0.24039047113723983,0.24404790142595048,0.1,0.9175694399574996,0.9177476923411264,0.91808398138829,0.9175694399574996,0.9058359981726816,0.9052128964342383,0.9057193411413268,0.9058359981726816,0.9091628064625467,0.9082459124986607,0.9098790548876198,0.9091628064625467,0.8935728454108967,0.9327357937902754,0.8831925536398116,0.9397162283393928,0.9042000412688289,0.9258582992184593,0.8734361808273851,0.9250284155489884,0.9027447247342535,0.9075742706753501,0.8459708593517693,0.9431670684220286,0.8770830148295368,0.9279634441358301,0.922050787528126,0.902177700348432,0.8362973760932945,0.9552665559859804,0.22768343928636928,0.1937510762791277,0.32734016435227925,0.16825445687031224,0.3297998179820732,0.16054372340038742
3,0.18647078392604371,0.25912252270015423,0.24361823695000384,0.1,0.9255669703430898,0.9257228274660732,0.9260278981697474,0.9255669703430898,0.8933302878026496,0.8938104277209381,0.8950487840885321,0.8933302878026496,0.9016495311264264,0.9019616516210578,0.9026591397039245,0.9016495311264264,0.9038611327473016,0.9392768035984116,0.8937012927477767,0.9460699874938059,0.9142546286743327,0.9325804800893189,0.8647161066048668,0.9119532428355958,0.8429822084157018,0.9275167785234899,0.8876003568242641,0.896903393287595,0.8754203935599284,0.9187549582341686,0.8597329585382993,0.9298195900632852,0.8916909620991254,0.9079505626268216,0.20103947138131567,0.1680399876796017,0.2571737154797113,0.2740023144228506,0.2278209036182665,0.25554848259663304
4,0.17054122414161482,0.23374134920241355,0.23126958140059792,0.1,0.9309154085273488,0.9310664881911517,0.9313819763263884,0.9309154085273488,0.9010392873458201,0.9015343776142839,0.9029989802841037,0.9010392873458201,0.9029488193424472,0.9033215317098274,0.9042781698715909,0.9029488193424472,0.9108163965116172,0.943621290681665,0.9001135697538101,0.9507679956553051,0.9217768106698682,0.9365812244138444,0.8749007435212589,0.9181427424306835,0.8502876385575978,0.9358690418873375,0.9009812667261374,0.9010754681995179,0.8775830126834829,0.9196069255966308,0.8583774742124338,0.9333206686930091,0.897667638483965,0.9062903523335178,0.18369029024812583,0.15373370665167455,0.22632614577569665,0.2400417976407674,0.21928913359650376,0.2340880012015725
5,0.159271063675197,0.2524318195957743,0.2510774189160377,0.1,0.9362853840465781,0.9364371080474019,0.936786556492686,0.9362853840465781,0.8982983097304705,0.8986700825760134,0.8995253051898787,0.8982983097304705,0.9037961812224607,0.9038609228037826,0.9039412522726935,0.9037961812224607,0.9178400496199813,0.9479670506844898,0.9060717941219476,0.955829323370497,0.9299180250989514,0.940233066617045,0.8703312704768839,0.9163417727464888,0.852760736196319,0.9286870417975817,0.8886410942610764,0.9043204153532357,0.8763343257570256,0.9212776776221513,0.8731008537114745,0.9234547307941804,0.8795918367346939,0.9191108651540306,0.17083371916992796,0.14450607148980033,0.2632983721054101,0.2347416488154635,0.27066866530239,0.22137906252935852
6,0.14974969384539197,0.27746481575367926,0.2743623292206398,0.1,0.9397744323117457,0.9398984716683901,0.9401691416467428,0.9397744323117457,0.9030950205573322,0.9026337443597435,0.9027847888301793,0.9030950205573322,0.904248107558468,0.9036411614010376,0.9041335089863444,0.904248107558468,0.9221965628854697,0.9508734327693938,0.9120042557875041,0.9576310171150875,0.932619257536251,0.9442105508001488,0.8708425298728975,0.92245830477496,0.892094183689381,0.9094513019190918,0.8505798394290812,0.9358427591322084,0.8725276378130405,0.9233274528429909,0.9011962094143234,0.9059920106524634,0.8456268221574345,0.9413392363032651,0.16087097628597988,0.1356096480339355,0.4097725793218711,0.15906659274508184,0.4127683091626666,0.13053328380752488
7,0.1395398736182778,0.2868567831770042,0.2735929026123952,0.08000000000000002,0.9440388246358395,0.9441562774206109,0.9444270081212207,0.9440388246358395,0.8988122430333486,0.8980052230426355,0.8987695127600106,0.8988122430333486,0.9019884758784318,0.9010402662751935,0.9024361470698403,0.9019884758784318,0.9277216797871058,0.954345521527009,0.9172686933880964,0.9612648221343874,0.9384156521412894,0.9475251209527354,0.8631871525633107,0.91971728887278,0.8978477353035657,0.899344320396952,0.8311031816830211,0.9410346745781568,0.867607783288821,0.9221938203506884,0.910328262610088,0.897442611503884,0.8287172011661808,0.9483490130972145,0.14858471011936228,0.12707939861843465,0.4721298193376143,0.14205166921495413,0.42020333918343045,0.127291121808209
8,0.1198465550299519,0.30049192326806246,0.28006313365942315,0.08000000000000002,0.9514979216471754,0.9515977361565041,0.9518459715092987,0.9514979216471754,0.8941868433074464,0.8941794309943,0.894172170716842,0.8941868433074464,0.9045870523104734,0.9044759285858336,0.9044084221222867,0.9045870523104734,0.937341173415444,0.960436625986742,0.9269898923192633,0.9672564284029253,0.9479262413476148,0.9537123185708969,0.8621997471554994,0.9141215182833573,0.8625204582651391,0.913909739597813,0.8618792744573298,0.9143333951418505,0.8761276127612762,0.9224126050806192,0.8816236162361624,0.9188249290747689,0.8706997084548105,0.9260284080427965,0.12775005236878662,0.10919885291000427,0.43183382301667833,0.18600633837211278,0.39343844814893536,0.162514026504154
9,0.11208094440705324,0.2924432490495799,0.28254446354124885,0.08000000000000002,0.9556977019663587,0.9557842945894353,0.9560048878830479,0.9556977019663587,0.8986409319323893,0.8987909052486748,0.8990131569361195,0.8986409319323893,0.9062817760705005,0.9062220483900131,0.906175660179799,0.9062817760705005,0.942733321578708,0.9638757339296481,0.9328558310376492,0.9703570123640135,0.9528222251402202,0.9574804614812058,0.8691099476439791,0.9172995387410893,0.8621799561082663,0.9219818301020886,0.876152245019328,0.9126645651770814,0.8786659840561691,0.9236574478855092,0.8816967562013797,0.9216640646524015,0.8756559766763848,0.9256594724220624,0.11923464853979332,0.10222667700947152,0.38144470890749854,0.22644972698091712,0.3880883229207033,0.17895766108053093
10,0.10442414226401484,0.3579568568465643,0.36854865765378997,0.06400000000000002,0.9590647053333621,0.9591365361438583,0.9593159541641991,0.9590647053333621,0.8992119689355871,0.8978089367555391,0.900607666612365,0.8992119689355871,0.8987685007343803,0.8970033163063962,0.9016815657267234,0.8987685007343803,0.947026143183634,0.9666448276668929,0.938136170369416,0.9724471540887906,0.9560862143352905,0.9609113323409006,0.8603970576603654,0.921138465662839,0.9192158188271083,0.8890038809831824,0.8086529884032114,0.9556832931577971,0.8590308370044053,0.9210294376872906,0.9330143540669856,0.8818565400843882,0.7959183673469388,0.9638443091680502,0.10987349850758679,0.0959274371542016,0.6205452192615769,0.1175270068103275,0.6544568230050333,0.09937745256943246
11,0.08458824658582696,0.337034931567201,0.3012185164453377,0.06400000000000002,0.9668827579275341,0.9669281852732964,0.9670389960962148,0.9668827579275341,0.8933302878026496,0.8937738654768453,0.8948539792198693,0.8933302878026496,0.9035137272624563,0.9038842701748458,0.9048391392709607,0.9035137272624563,0.9570520161252781,0.9730512860956787,0.9500554528650647,0.9775685795781344,0.9641523945300043,0.9685755489393375,0.8644215415880389,0.9120775675421255,0.8444412932501418,0.9262906309751434,0.8853702051739518,0.8982940849249027,0.8782955679065128,0.9200748713149275,0.8590744354613884,0.9337955927051672,0.898396501457726,0.9067515218594355,0.08968061637740558,0.07788216120595945,0.4027353624577779,0.2766651963209861,0.3752748269908586,0.22931629061743564
12,0.07851750653920929,0.39495273365253264,0.3621543893829845,0.06400000000000002,0.96932365589082,0.9693743739026661,0.9695213645229483,0.96932365589082,0.8842507994518045,0.8847939490401431,0.8861596328483331,0.8842507994518045,0.8949271268783189,0.8951953878142251,0.895703987050507,0.8949271268783189,0.9602796136720675,0.9750130110111164,0.9517947961966536,0.9805116142311086,0.9689170684124632,0.9695757350204689,0.8533815551537071,0.9043822821831219,0.8309621073390618,0.9205800441755498,0.8770443056794529,0.8887446690153903,0.8663985059617871,0.9134158830648915,0.8540073633531577,0.9220864661654136,0.8791545189504373,0.9049068437557646,0.0817713449650108,0.07301441543625242,0.4285299776929423,0.3548318196500628,0.43140694473772195,0.2974899141144495
13,0.0747208793645655,0.4360238969889323,0.43214874015010935,0.051200000000000016,0.9714702102761804,0.971514664228039,0.9716445274622858,0.9714702102761804,0.8967565098218364,0.8957123426703294,0.8970643737850738,0.8967565098218364,0.9034007456784544,0.9020443077257358,0.9051792066672846,0.9034007456784544,0.9630394345238096,0.9767692001917389,0.9550275774289351,0.981946827766155,0.9711868540021384,0.9716458876069967,0.8591461514490496,0.9185145123490175,0.902454991816694,0.893702859147518,0.8198037466547725,0.9447431856109771,0.8671947809878844,0.9240944602272727,0.9280252659574468,0.8907239431798734,0.8138483965014577,0.9600627190555248,0.0775161268871258,0.06984427151175282,0.7343198202956017,0.15538596243845693,0.7887885971638691,0.1014778749498605
14,0.05689615622872826,0.4666426878332302,0.43499906100993535,0.051200000000000016,0.9787785459427251,0.9787995388459345,0.9788545178879913,0.9787785459427251,0.8959570580173595,0.8954083760938432,0.895593849656077,0.8959570580173595,0.9067337024065077,0.9059084315798587,0.9070962363600712,0.9067337024065077,0.9724212569040155,0.9827539935356647,0.9673132250580047,0.9860099744784472,0.9775835224821324,0.9795194454782286,0.8610009154714678,0.9168643913122833,0.8842055781886556,0.9026954177897574,0.8389830508474576,0.9314852586686445,0.8744582161052391,0.9258077562575833,0.9140041328882531,0.9027254403645605,0.8381924198250729,0.950101457295702,0.05953945543058345,0.0524985810113845,0.7345196759049555,0.22386010126863592,0.7388237988209181,0.15365251087985715
15,0.051756427985863565,0.4818036954113069,0.4558318770126412,0.051200000000000016,0.9806307567501598,0.9806514416112494,0.9807119329005295,0.9806307567501598,0.8920740063956144,0.8913203759018665,0.8917907343232543,0.8920740063956144,0.8998983165743983,0.8990072223513471,0.9001329416180017,0.8998983165743983,0.97483913084025,0.9842550012838769,0.9693069490550992,0.9877828796326664,0.9804348233881709,0.9807522329735765,0.8547047970479705,0.9141533430232558,0.8849092645654251,0.8960819234194123,0.8264942016057092,0.9329686630817726,0.8652266504411318,0.9203810208483105,0.9045801526717557,0.8973190818293324,0.8291545189504373,0.9446596568898727,0.05342134713758954,0.048250698464810574,0.7596181115364863,0.22037177282808224,0.7405359337426438,0.18096829893010927
16,0.05100868574699247,0.43171463748325273,0.41883190703511897,0.04096000000000002,0.9815137874839367,0.981530710474175,0.9815767505004075,0.9815137874839367,0.8917884878940155,0.8915569038634281,0.8914572515003064,0.8917884878940155,0.9019884758784318,0.9015106597880435,0.9017087109861467,0.9019884758784318,0.975966250081668,0.984980606025256,0.9712252935057215,0.9879945238178819,0.9807537188842409,0.9819850204689244,0.8575723412251034,0.912749205764538,0.8671530627754978,0.9066130064941005,0.8482010110020815,0.918969033932876,0.8703966534697841,0.921197256665304,0.8925999693580512,0.9074720357941835,0.849271137026239,0.9353440324663346,0.052364230474804145,0.04784155037278469,0.6398769247476394,0.24550585849186454,0.6301363732878846,0.18763579020955695
17,0.03794664644917423,0.6382187605591286,0.5903890511182429,0.04096000000000002,0.9861730309491503,0.9861839016748695,0.9862162611277069,0.9861730309491503,0.8875628140703518,0.886423538202229,0.8876591693826618,0.8875628140703518,0.8972432493503559,0.8958351870245437,0.8986991112106686,0.8972432493503559,0.9820110959595016,0.9887709888059701,0.9779191547147348,0.9913603628881407,0.9861374252002476,0.9861951060662448,0.8465913517724971,0.9112623371941052,0.8893435914224914,0.8866087871612733,0.8077609277430865,0.9373261635453366,0.8589156906848677,0.9191950601927946,0.9177855130117686,0.886622675464907,0.8071428571428572,0.9542519830289614,0.03850691492348955,0.035681583694833575,1.080695257676264,0.2385802904982218,1.0437747898794958,0.1671380197967599
18,0.03539949765243202,0.5093711725882454,0.4897532156733736,0.04096000000000002,0.9873719425958232,0.9873810186718803,0.9874080339997745,0.9873719425958232,0.8940726359068067,0.8927354894225163,0.8949211720353545,0.8940726359068067,0.897186758558355,0.8957224442945612,0.8988218634243642,0.897186758558355,0.98356489483962,0.9897469675155486,0.9798205443240627,0.9921121822962313,0.9873379729501585,0.9873930033494603,0.854017470685449,0.9168795088945647,0.9072061528172546,0.887260428410372,0.8067201903062742,0.948544409419618,0.8585418933623504,0.919247493122726,0.9195804195804196,0.885687414500684,0.8051020408163265,0.9554510237963475,0.035746328270894925,0.03357279325447997,0.8422525982723432,0.18535274103484953,0.8647277947216582,0.13098899050705867
19,0.03384085430626203,0.6530040667422946,0.5905213151211804,0.03276800000000001,0.9878385848535103,0.9878460798939351,0.9878667240785842,0.9878385848535103,0.8894472361809045,0.8882786981764826,0.8896757053902506,0.8894472361809045,0.8969043045983505,0.8955648012165822,0.8981220270620537,0.8969043045983505,0.9841634881459875,0.9901292405225559,0.9809538008535381,0.9921526496485041,0.9873942486259356,0.9881140677335318,0.8488916640649391,0.9128399063569241,0.8935261255340124,0.8872746367932784,0.8085043116265239,0.9399221212683108,0.858844458194756,0.9187986651835373,0.9148129840171363,0.8875612481733001,0.8093294460641399,0.952315071020107,0.03468830766563823,0.03160394315288853,1.088008661267787,0.2577436760280914,1.0000607769990468,0.18984597234270836
20,0.023794684225128915,0.6036620657757442,0.5297176573363608,0.03276800000000001,0.9913635286769615,0.991366813511928,0.9913750845235476,0.9913635286769615,0.887220191868433,0.8876800501606589,0.8887449641958659,0.887220191868433,0.8954920347983278,0.8958770851031199,0.8967906033698361,0.8954920347983278,0.9887394344444133,0.9929957555326544,0.9867536058590539,0.9942403432475603,0.9907332720553753,0.9917542798660216,0.8565826737346598,0.9070719427845481,0.8371894960965224,0.9208942390369733,0.8768956289027654,0.8936584461338772,0.8680456490727532,0.9134867190422746,0.8498603351955307,0.9264845380383229,0.8870262390670554,0.9008485519276886,0.024376706563021454,0.022251052120021122,0.6282577787386897,0.5489079324796503,0.6019719750595794,0.4428225861585117
21,0.021835848989267055,0.6663408117865165,0.6631240967005397,0.03276800000000001,0.9920886189542906,0.992091475132381,0.9920988243320684,0.9920886189542906,0.8949291914116034,0.89389427883652,0.8951402763370306,0.8949291914116034,0.8974127217263586,0.8963546056428994,0.8979051674794436,0.8974127217263586,0.9896837730055607,0.9935842202091242,0.9877973576514119,0.994765679645605,0.9915774071920314,0.992405563825828,0.8568093385214007,0.9170199332551637,0.8989222730241672,0.892781875658588,0.8184656556645852,0.9426107917671055,0.8610558530986994,0.9186889943583774,0.9061191626409018,0.8927079707622694,0.820262390670554,0.946227633277993,0.02206384563684116,0.020545343829642685,1.1329666081415748,0.23917547718424745,1.127161444295962,0.22562749463098564
22,0.021709838917917633,0.606196302509111,0.5643622617179082,0.026214400000000013,0.9922537385223953,0.992256575922458,0.9922640402258802,0.9922537385223953,0.8917884878940155,0.8912698316160802,0.891362447805796,0.8917884878940155,0.8987120099423794,0.8983631920113482,0.8983651712260884,0.8987120099423794,0.9898993681254388,0.993718015148957,0.9879849017116377,0.9949170523566924,0.991821268453732,0.9925218645329363,0.8557509324807795,0.9134189244757162,0.8767742941818749,0.900459418070444,0.835712161760333,0.9267569071017986,0.86697826248238,0.9182212086659065,0.8827617464873848,0.9082378417396012,0.8517492711370263,0.9284264895775687,0.02201323753778415,0.020399630304701332,0.8510134192454325,0.35875661735717185,0.8439175024681234,0.31040364068787324
23,0.01624756592297444,0.6617563098410375,0.6099194674804738,0.026214400000000013,0.9942997853445614,0.9943012610890576,0.9943050448476662,0.9942997853445614,0.8936158063042485,0.8930351954865199,0.8932345637024803,0.8936158063042485,0.8976386848943623,0.8969573860187348,0.8974675194243763,0.8976386848943623,0.9925630362294406,0.9953789386690878,0.9912075577588626,0.9962254479368112,0.9939222270160761,0.9945338667659099,0.8577536840497824,0.9150362566698591,0.88165123214566,0.9004577686024594,0.8351174546535831,0.930094567031337,0.8635336647085404,0.918105396366266,0.8932689311311935,0.9001240694789082,0.8357142857142857,0.9368197749492714,0.016092620796338622,0.01568701341024116,1.0035496396218064,0.3174838219969119,1.0192541268563455,0.25236713984479187
24,0.015366211700531015,0.6702431017503057,0.6099546495190036,0.026214400000000013,0.9944864422476363,0.9944878112884972,0.9944913030754181,0.9944864422476363,0.8902466879853814,0.8899225891453392,0.889842892404935,0.8902466879853814,0.9067901931985086,0.9064847403360486,0.9065018792527625,0.9067901931985086,0.9928061597257348,0.9955304141350653,0.991505921532676,0.9963422021341037,0.9941098126019997,0.9947199478972832,0.8549652882583761,0.9117214771265846,0.8680661967514557,0.9034225377753504,0.8422539399345822,0.9201743000185425,0.8776871756856931,0.9247056676097472,0.8929110105580694,0.9151011560693642,0.8629737609329446,0.9345139273196827,0.015658382109034537,0.014399514260259906,0.9398680822419674,0.41987368261156993,0.9111477559527871,0.32475176447997234
25,0.015287222662445832,0.752828638212072,0.7646141505192319,0.02097152000000001,0.9945510542525468,0.9945526282861222,0.9945570795770197,0.9945510542525468,0.8925879396984925,0.8912705698877246,0.8932970291656799,0.8925879396984925,0.8940232742063043,0.8927428739093961,0.894885853094081,0.8940232742063043,0.9928919938940448,0.9955822007508512,0.9913786654697786,0.996527656401114,0.9944099495394774,0.9946385374023075,0.852180746561886,0.9156464415444638,0.903817302883814,0.8867367323894728,0.8061254831995243,0.9465047283515668,0.8554254007398274,0.916354556803995,0.9074558534990189,0.8869325047471086,0.8090379008746356,0.9477956096661133,0.015639710905216733,0.014343199960308188,1.3071893047237761,0.23774475829884273,1.3589016514233032,0.22006381095574565
26,0.009835509974385384,0.7941751206651244,0.7509034776517941,0.02097152000000001,0.9964319815066084,0.9964327477235345,0.9964351032839673,0.9964319815066084,0.8936158063042485,0.8928486703634281,0.8933818837856894,0.8936158063042485,0.90249689300644,0.9016703471374552,0.9026984254223096,0.90249689300644,0.9953437824974939,0.9971078924857577,0.9942167321729366,0.9978104655090085,0.9964733909846367,0.9964063081503536,0.856637168141593,0.9154296609015389,0.8878609028553198,0.8968246909187939,0.8275349390425215,0.9348229185981828,0.8689644700880655,0.9223641597697013,0.9066856780735107,0.9001755926251097,0.8342565597667638,0.9456742298468918,0.009546324209997969,0.009474462062986556,1.2526876758264776,0.35606199507726016,1.3274042190844648,0.25663659518597415
27,0.008508789116835657,0.8782660471562073,0.8033912817669464,0.02097152000000001,0.9970134895508029,0.9970140728074297,0.9970159705282539,0.9970134895508029,0.8915600730927364,0.8904489722778137,0.8917731007305677,0.8915600730927364,0.9009151508304146,0.8999077371302836,0.9014555751789288,0.9009151508304146,0.9961022412113035,0.9975793969439887,0.9950766581178981,0.9982183198639868,0.9971299405353693,0.9969412914030518,0.8519759918933666,0.9144401892318089,0.8954612485662788,0.8894732228942064,0.8125185845970859,0.9408492490265159,0.8658816332772595,0.9214368897249843,0.9105821807655194,0.8956809474050853,0.8253644314868804,0.9487179487179487,0.00861152079934683,0.007952621110923352,1.4600120330761053,0.35753262035717875,1.4553908570341445,0.24671003988583465
28,0.010329625133892179,0.7395746160689992,0.690476404449193,0.016777216000000008,0.9964535188415785,0.9964541361542689,0.9964557962164808,0.9964535188415785,0.8968136135221563,0.8960731680451764,0.8966269581643708,0.8968136135221563,0.9050389786464806,0.9041682136270426,0.9054376350082016,0.9050389786464806,0.9953708909629296,0.9971257345668237,0.9944576553635291,0.9976946184477098,0.9962858053987131,0.9965574990695943,0.8609679156728476,0.9179643165206338,0.892202200605964,0.8993861756071524,0.8318465655664585,0.9373261635453366,0.8720018274575497,0.9245206771137353,0.9128008927148095,0.9007787207979701,0.8346938775510204,0.9495480538646006,0.010260206629096907,0.009890272653996349,1.0925320517378596,0.38392082908204106,1.1692494555821824,0.2499940852393005
29,0.0047254779918637305,0.8303418345133664,0.7658992566100058,0.016777216000000008,0.9983990581005506,0.9983991749127348,0.9983994747101768,0.9983990581005506,0.8945865692096848,0.8940691597635247,0.8941930641751269,0.8945865692096848,0.9027228561744436,0.9020655987261953,0.9026408021634169,0.9027228561744436,0.9979092247255271,0.9987029378747957,0.9975257731958763,0.9989411586749357,0.9982929711680955,0.9984648306661704,0.8594059405940594,0.9156846624646022,0.8810118675827607,0.9024126755491537,0.8388343740707701,0.9293528648247729,0.870253164556962,0.9221941080788,0.9006550218340611,0.9038972542072631,0.8418367346938775,0.9412470023980816,0.00484798013237778,0.0042710576345348665,1.1698997360314962,0.48375761428523584,1.1940600555165026,0.3245410199421057
30,0.00667493901072131,0.8276522097361909,0.8084905539697588,0.016777216000000008,0.9977385798281321,0.9977388893317545,0.9977398435957485,0.9977385798281321,0.8985267245317496,0.8973541340567777,0.8992189967424449,0.8985267245317496,0.9035137272624563,0.9021550119874051,0.9053102583748662,0.9035137272624563,0.9970476592155209,0.9981674433216399,0.9963286254823361,0.9986147811004924,0.9977677315275094,0.9977205061406773,0.8607475903142386,0.9201814670080403,0.9100248550124275,0.8924806134007145,0.8165328575676479,0.9496569627294641,0.8673295013204909,0.9241899689303151,0.9283338875956102,0.8907426420260096,0.8138483965014577,0.9602471868658919,0.006463242685751031,0.006503961051438093,1.3745463898051131,0.32197636131003904,1.4758765656277788,0.20069636688300238
31,0.005570930702213033,0.7574185958314987,0.7133017591611471,0.013421772800000007,0.998363162542267,0.9983632674267005,0.9983635133865586,0.998363162542267,0.8967565098218364,0.8960535992109078,0.8965266376565093,0.8967565098218364,0.902440402214439,0.901733352225596,0.9024253685392639,0.902440402214439,0.9978622461417294,0.9986738943303166,0.9975255412878433,0.9988830455624331,0.9981991783751336,0.9984648306661704,0.8611153787064065,0.9178405889302917,0.8908137317228226,0.9000891265597148,0.8333333333333334,0.936306323011311,0.8695914822925319,0.9220703036866568,0.9020836597211342,0.9026415761109639,0.8393586005830904,0.9423538092602841,0.00587467004356945,0.004999344210588844,1.1532073137573349,0.3836695959829418,1.144874264815882,0.310327943368247
32,0.003394631530392657,0.9199349388687383,0.9127221277613603,0.013421772800000007,0.9988513421349242,0.9988514075688619,0.9988515845338155,0.9988513421349242,0.8970991320237551,0.895948094963732,0.8976606456665969,0.8970991320237551,0.8988249915263812,0.8976470367950072,0.8996996484263496,0.8988249915263812,0.9984997655883732,0.999069421179974,0.99820025871281,0.9992553983618764,0.9987994522500891,0.9988835132117603,0.8589984350547731,0.9189893903974106,0.9066732738685167,0.892040495723512,0.8160868272375855,0.9476172816614129,0.8622201707823679,0.9200624860522205,0.9128522560677634,0.8913776701548041,0.8169096209912536,0.9506548607268032,0.0032650723914109817,0.003262299765290837,1.5250376125223157,0.34774258536572406,1.6058735053004838,0.29954341215453084
33,0.004492225358744055,0.8400677127869398,0.8076327116978981,0.013421772800000007,0.9985785358919688,0.9985786269758189,0.9985788591690679,0.9985785358919688,0.8947007766103243,0.8936636142252949,0.8949066720541272,0.8947007766103243,0.899502881030392,0.8984047843967476,0.900201047108623,0.899502881030392,0.9981435295441333,0.9988483819184328,0.9978067297778611,0.999057569693303,0.998480556754019,0.9986392817268329,0.8564980544747082,0.9168395418057184,0.8985956890920966,0.8926062521952933,0.8181683021112103,0.9424253662154645,0.8635422259722328,0.9204631823668797,0.9112837947223571,0.8931887201735358,0.8205539358600583,0.9494558199594171,0.004712653927490515,0.004015461182742493,1.3048966595176297,0.37867383225385887,1.4013854158445749,0.28626289514302544
34,0.0026259943200690975,0.9762987966279475,0.8979205454489724,0.010737418240000006,0.9991241483778798,0.9991241889245662,0.999124303124739,0.9991241483778798,0.8947007766103243,0.8934777975717197,0.8953037519634301,0.8947007766103243,0.9022144390464354,0.9009782529359097,0.9034851316456229,0.9022144390464354,0.9988560069014666,0.9992904584103942,0.9986125433580201,0.9994415877521581,0.9990995891875668,0.9991393747673986,0.8554632387521555,0.9171831491960837,0.9046750663129973,0.8894599303135888,0.8113291703835861,0.9466901539032079,0.8663010736077856,0.9229193569933651,0.9213077049449647,0.8922083512699096,0.8174927113702624,0.9558199594170818,0.0025934635595631036,0.0025116604794551763,1.6197064364415215,0.3720618052915942,1.6035788217396483,0.25319569237327827
35,0.0022376039781833103,0.967999630199852,0.9359163818475416,0.010737418240000006,0.999246193276044,0.9992462268317474,0.9992463284940091,0.999246193276044,0.8974417542256738,0.8963380724245444,0.8979108262853606,0.8974417542256738,0.9017625127104282,0.9007619104964834,0.9023275285695538,0.9017625127104282,0.9990154065433268,0.9993893325113555,0.9987812652341845,0.999534661873684,0.9992496576563057,0.9992440454037961,0.859709420403062,0.9191791917919179,0.9056945358788677,0.893057012941588,0.8181683021112103,0.9468755794548489,0.867018429303357,0.9221122407847001,0.9118545922470646,0.8962995211144972,0.8263848396501458,0.9494558199594171,0.0022634142918529308,0.0021145316866986717,1.5731052294563501,0.3997596739032278,1.6203917812140114,0.3276105949658415
36,0.002498349631711621,0.9469300997747203,0.9070638214495415,0.010737418240000006,0.99916722304782,0.9991672704874247,0.9991674294974192,0.99916722304782,0.8972704431247145,0.8964603382579216,0.8971866979993401,0.8972704431247145,0.9009716416224155,0.9001094379253496,0.9011886110666502,0.9009716416224155,0.9989123300515705,0.9993253303554811,0.9986126994244577,0.9995113551749814,0.999212140539121,0.9991393747673986,0.8611561318206374,0.9184755517288259,0.8953619001765367,0.8983246166120025,0.8294677371394589,0.9395512701650287,0.8667831902120222,0.9211957743313104,0.905381806635974,0.8985354731211085,0.8313411078717201,0.9450285925106069,0.002061751483095099,0.002661378153811732,1.454179011114054,0.4558154123616782,1.5221031285645994,0.38090737008886444
37,0.001772007055256782,0.9576194313855863,0.9116553025622199,0.008589934592000005,0.9995118204073428,0.9995118360576326,0.999511887026598,0.9995118204073428,0.8966423024211969,0.8957468458161044,0.8966697689370495,0.8966423024211969,0.9034572364704553,0.9026371317433305,0.9036808529791226,0.9034572364704553,0.9993623166660415,0.9996045362023844,0.9991936542464418,0.9997091873531396,0.999531036035191,0.9994999069594344,0.8598420319033607,0.9181365897783809,0.8972204266321914,0.8963263864358884,0.8254534641688969,0.9410346745781568,0.8702452357451977,0.9231322808437907,0.9080969735382666,0.9008866649108945,0.8354227405247814,0.9465043349935436,0.001579756894383848,0.0018480680306941456,1.5267546895798947,0.41835715227027254,1.573282437717744,0.340770895771766
38,0.0007696895501775537,1.0371570917631665,0.9623987687978806,0.008589934592000005,0.9997702684269848,0.9997702708829395,0.9997702772646594,0.9997702684269848,0.8977272727272727,0.8968654312004791,0.8977362037911711,0.8977272727272727,0.9030618009264489,0.9022297916258634,0.9032953269952138,0.9030618009264489,0.9996998799519808,0.99981391237599,0.9996436274969521,0.9998487985298564,0.9997561387382994,0.9997790286564943,0.8614527732652587,0.9189482735212925,0.8979196903725205,0.8976217841039695,0.8278322925958965,0.9413128129056184,0.8696642867993316,0.9228347873010163,0.9078655248969235,0.9004036504036504,0.8345481049562682,0.94641210108836,0.000813080996404716,0.0006865335546894492,1.6392715235979685,0.4604337142299357,1.6621096813515892,0.3491809149806512
39,0.0010873255620589325,1.037674200256525,1.0179411424368372,0.008589934592000005,0.9996769399754475,0.9996769451554454,0.9996769591673064,0.9996769399754475,0.8988122430333486,0.8976409740906516,0.899517318761674,0.8988122430333486,0.901819003502429,0.9006963782231742,0.9027165684361982,0.901819003502429,0.9995779680568712,0.9997383097133619,0.9994936044112682,0.999790636813027,0.9996623459453375,0.9996859880908076,0.861128526645768,0.9204096298957959,0.9105071262843885,0.8926642272172852,0.8168302111210229,0.9499351010569257,0.8664104534973097,0.9223899258730017,0.9164227642276422,0.8940443213296398,0.8215743440233236,0.9525917727356576,0.0010186403927180435,0.001065721327982491,1.7014246160386348,0.40191937610017847,1.8516845859828344,0.30726921895556947
40,0.0013409997689285825,0.9876698976432341,0.9231649775925076,0.0068719476736000045,0.9996554026404773,0.9996554075520506,0.9996554194417681,0.9996554026404773,0.8994974874371859,0.8985750382155117,0.8996763282873738,0.8994974874371859,0.9052084510224834,0.9043375414697072,0.9056147223084658,0.9052084510224834,0.9995498283720669,0.9997208653175157,0.9994748391694956,0.9997673769424026,0.9996248288281528,0.9996743580200967,0.8634176625795437,0.9204986900352335,0.9030844155844155,0.8975510923185341,0.8270889087124591,0.9446504728351567,0.872220530003046,0.9246587643678161,0.9131058673469388,0.9008748906386702,0.8348396501457725,0.9497325216749677,0.0014863385240849183,0.0011280676504171906,1.5448570196326268,0.4527719222247948,1.6475280749833352,0.33023020328713054
41,0.0010185540887683376,1.0075328430468746,0.9803978147197802,0.0068719476736000045,0.9997487310920147,0.999748735120902,0.9997487479823605,0.9997487310920147,0.8998972133394244,0.898806483492848,0.9004603309018246,0.8998972133394244,0.9041916167664671,0.9030997423962117,0.9051423163164829,0.9041916167664671,0.999671752933122,0.9997964631103926,0.9995873813721445,0.9998487932538529,0.9997561387382994,0.9997441384443617,0.8629933567799922,0.9211390525889603,0.9097050584939859,0.8946954469981648,0.820844484091585,0.9491933988503616,0.869658776513987,0.9242586638085031,0.9197009102730819,0.8959307359307359,0.8247813411078717,0.9544364508393285,0.0009863418450022797,0.0009699974950391487,1.6714594525754713,0.37977234496155465,1.791225576539806,0.2920099357005097
42,0.0006000842559591428,1.0389187739315913,0.9784854600617002,0.0068719476736000045,0.9998348804318954,0.99983488190296,0.9998348861004669,0.9998348804318954,0.900525354042942,0.8993151941066809,0.9014370311768439,0.900525354042942,0.9046435431024743,0.9035133559470638,0.9057410906419451,0.9046435431024743,0.9997842866923646,0.9998662502980292,0.9997374048092433,0.999895323276614,0.9998311729726688,0.9998371790100484,0.8631578947368421,0.9218623844980712,0.9150566289140573,0.8929440389294404,0.8168302111210229,0.9527164843315409,0.8700338774253157,0.9246966452533905,0.9219973890339426,0.8954553309141179,0.8236151603498543,0.9559121933222653,0.0005552658076017154,0.0005824211696172976,1.7426452734513156,0.3765389410964072,1.7696812912089284,0.28187763469795324
43,0.0003858974190315245,1.054947670135259,1.007853908775422,0.005497558138880004,0.9998851342134925,0.9998851354414696,0.9998851405957161,0.9998851342134925,0.9010392873458201,0.8997821594505007,0.9021201050428305,0.9010392873458201,0.9029488193424472,0.9017575946100888,0.9041265335233659,0.9029488193424472,0.9998499399759904,0.9999069561879951,0.9997936790771828,0.9999418455884064,0.9999062072070382,0.9998720692221809,0.8635755333385814,0.9223601093140988,0.9176844570854944,0.8924143909839618,0.8154921201308356,0.95438531429631,0.8674996143760605,0.923433461092789,0.9210612512283001,0.8934115212142117,0.8198250728862974,0.955543257701531,0.0003296813952219498,0.00040235834279201923,1.769803849531547,0.3779291300363376,1.8457843298477432,0.2901916050626825
44,0.0006873781461025532,0.9852911691312333,0.9462068830764955,0.005497558138880004,0.9998277013202387,0.9998277025482998,0.9998277055212824,0.9998277013202387,0.9008679762448607,0.9000487699342349,0.9009092197344631,0.9008679762448607,0.9037961812224607,0.9028967468534119,0.9042088713770046,0.9037961812224607,0.9997749057417794,0.9998604359051895,0.9997373998837057,0.9998836938822983,0.9998124144140764,0.9998371790100484,0.8658008658008658,0.9214052879391524,0.9017713365539453,0.900371615643249,0.832589949449896,0.9434452067494901,0.8702278442429322,0.9235671648489745,0.9117036563946991,0.8994667366028499,0.8323615160349854,0.9489946504334994,0.000650781813978846,0.0006642467595582983,1.570767605175062,0.45408189581963493,1.646148837590253,0.3470654221738086
45,0.000195454020498322,1.012923256039741,0.977714894032027,0.005497558138880004,0.9999784626650299,0.9999784627801646,0.9999784638769897,0.9999784626650299,0.9017816354499771,0.9007584637104322,0.90227704152802,0.9017816354499771,0.9038526720144616,0.9027641948441928,0.9047726522562146,0.9038526720144616,0.9999718629538271,0.9999825545895967,0.9999437274909964,1.0,1.0,0.9999651097878675,0.8658346333853354,0.922536479913529,0.9107318674105678,0.8970047293746716,0.8251561106155219,0.9495642499536436,0.8692378610940381,0.9239771306056817,0.9189408706952567,0.8958080720595878,0.8246355685131196,0.9539752813134108,0.000162716195788029,0.00021017954887288476,1.6688493058360099,0.41734945248348715,1.7528948438831555,0.3159032889002889
46,0.00013150925751973265,1.025092707169406,0.9869492542668963,0.004398046511104004,0.9999856417766866,0.9999856418278592,0.9999856423153455,0.9999856417766866,0.9027523983554134,0.9018652169358973,0.9029885407006442,0.9027523983554134,0.905377923398486,0.9044071888115262,0.9060476360562062,0.905377923398486,0.9999812417932845,0.999988369794029,0.9999624842902965,1.0,1.0,0.9999767398585784,0.867871828691132,0.9230630223627739,0.9075125750446211,0.9001674156313332,0.8315492120130835,0.9471537177823104,0.8718733267038935,0.9249921633603511,0.9172702398197328,0.8989468186961441,0.8307580174927114,0.9525917727356576,0.0001290179639917775,0.00013189782148424685,1.640630614433645,0.45820943896299937,1.7349866884890872,0.3468351741228585
47,0.00012383945917389746,1.01707847543273,0.9803666099583461,0.004398046511104004,0.9999784626650299,0.9999784627034108,0.9999784628508698,0.9999784626650299,0.9029808131566925,0.9020488454845886,0.9033217403813729,0.9029808131566925,0.9055473957744887,0.9046112790422697,0.9061327646967507,0.9055473957744887,0.9999718624260217,0.9999825547924892,0.9999624835865691,0.999988369794029,0.9999812414414077,0.9999767398585784,0.8679157272797947,0.9233337845765083,0.9095649340068437,0.8994285714285715,0.8299137674695213,0.948544409419618,0.8722884204094103,0.9250627465041233,0.9162387676508345,0.8997384481255449,0.8323615160349854,0.9518539014941892,0.0001176442194775234,0.00012395378312497255,1.6062889518690515,0.46558500152853866,1.7382509357990832,0.3435062567648145
48,7.269075299229862e-05,1.0323846566173391,0.9958614571402332,0.004398046511104004,1.0,1.0,1.0,1.0,0.9016674280493376,0.9007099600817624,0.9020072233898856,0.9016674280493376,0.905377923398486,0.9044176201663742,0.9060192996482945,0.905377923398486,1.0,1.0,1.0,1.0,1.0,1.0,0.8660547604231488,0.9223204619271022,0.9081566068515498,0.8981725531541029,0.827683615819209,0.9478027072130539,0.8719321049009863,0.9249720044792833,0.9168676636115131,0.899155273012279,0.831195335276968,0.952315071020107,7.47464863459145e-05,6.654047413984941e-05,1.6397002595750314,0.46007240925375975,1.7614928433870434,0.34769147355704255
49,0.00011040659454361754,1.0489033548140674,0.9882529549032952,0.0035184372088832034,0.9999641044417164,0.9999641045056843,0.9999641046787292,0.9999641044417164,0.9001256281407035,0.8992984805136013,0.9001559789113697,0.9001256281407035,0.9048695062704779,0.9040597226926642,0.9051240900539141,0.9048695062704779,0.9999531040433693,0.9999709246541487,0.9999437253798537,0.9999767395880581,0.9999624828828153,0.9999651097878675,0.8647854657904909,0.9208203178052424,0.9007891770011274,0.8997611253649473,0.8315492120130835,0.942888930094567,0.8721336370539104,0.9242601421246739,0.9101426307448495,0.9019487359550562,0.8371720116618075,0.9477033757609297,0.0001009221966525134,0.00010707475339337919,1.6380094472820406,0.5065501297845053,1.686925100160888,0.388105827400267
50,0.00010906270646191517,1.0469407318310588,0.9936677299473411,0.0035184372088832034,0.9999784626650299,0.9999784627034108,0.9999784628508698,0.9999784626650299,0.9011534947464596,0.9002480730220186,0.9013634974325808,0.9011534947464596,0.905434414190487,0.9045417780532617,0.9059033901957763,0.905434414190487,0.9999718624260217,0.9999825547924892,0.9999624835865691,0.999988369794029,0.9999812414414077,0.9999767398585784,0.8656785908279662,0.9218051226453449,0.9053725044635611,0.8988635362523125,0.8293190603627714,0.9459484516966438,0.8723890837017838,0.9248855783900206,0.9143496324704379,0.900559245019224,0.8341107871720117,0.9505626268216196,0.0001196942346114656,8.466528358531424e-05,1.6545008580261338,0.48591773939523436,1.738579321217223,0.3630739106180573
