epoch,train_loss,val_loss,test_loss,learning_rate,train_accuracy,train_f1_weighted,train_precision_weighted,train_recall_weighted,val_accuracy,val_f1_weighted,val_precision_weighted,val_recall_weighted,test_accuracy,test_f1_weighted,test_precision_weighted,test_recall_weighted,train_f1_MI,train_f1_NORM,train_precision_MI,train_precision_NORM,train_recall_MI,train_recall_NORM,val_f1_MI,val_f1_NORM,val_precision_MI,val_precision_NORM,val_recall_MI,val_recall_NORM,test_f1_MI,test_f1_NORM,test_precision_MI,test_precision_NORM,test_recall_MI,test_recall_NORM,train_loss_MI,train_loss_NORM,val_loss_MI,val_loss_NORM,test_loss_MI,test_loss_NORM
1,0.2765401085129546,0.39586495956834655,0.4014032346373148,0.1,0.8933497200600846,0.8936358275596676,0.8941530882898369,0.8933497200600846,0.8508268259072118,0.8472669228552414,0.8528202345009542,0.8508268259072118,0.848962467399932,0.8448986692462869,0.8525570658371388,0.848962467399932,0.8619229731364394,0.9131231521325488,0.8496294393894922,0.9215125553914328,0.8745774873954341,0.9048851241587376,0.7832832832832833,0.8862721064612152,0.8707344213649851,0.8418995342648037,0.7117950272892662,0.9355822550831793,0.7808850139825629,0.8847651180898002,0.8808684357023566,0.8349253000244918,0.7012852710887871,0.9409329285122826,0.29616125311825753,0.2532274523571901,0.41988906041331536,0.3673272322129159,0.43965136332342913,0.36605046138815256
2,0.34705854547535314,0.2830304295529616,0.2981583604379797,0.1,0.8773726614775366,0.877347571902359,0.8773236684964895,0.8773726614775366,0.9025608635737253,0.9017620018036305,0.9024975706598682,0.9025608635737253,0.8909173375666175,0.8896915012540251,0.8913166457424601,0.8909173375666175,0.8387365078164875,0.9010737974859687,0.8396253193301164,0.900489037222454,0.8378495760711521,0.9016593177071246,0.8664095095646698,0.9233132992905237,0.9010971016865892,0.9033513131134495,0.8342935112189206,0.944177449168207,0.8503888024883359,0.9141684511063526,0.8977179445082909,0.8873300424352646,0.8078002659181563,0.9426810194130095,0.3847998408600688,0.3080249324660091,0.3803639693906272,0.19016030980070142,0.4151450118481897,0.197367029885451
3,0.239020241498596,0.2597259567989756,0.26256059026864126,0.1,0.9094992705031731,0.9095555936295773,0.9096236765400724,0.9094992705031731,0.9122071658245292,0.9113837376185125,0.9125414937810818,0.9122071658245292,0.8995350946819367,0.8981305439030687,0.9009435767486478,0.8995350946819367,0.8814982119329945,0.9267966560861325,0.8786372249216742,0.9286646317310157,0.8843778914968748,0.9249361800881876,0.8790443794003638,0.9310981929611104,0.919106699751861,0.9085392665552722,0.84232868405094,0.9548059149722735,0.8607137242571923,0.9214330052318879,0.9197043507475222,0.8892597347026102,0.8088343920815483,0.9560217131290827,0.2650657822583419,0.2101011180480675,0.36652110054762693,0.15924231979968775,0.38307506416289916,0.15926111117005348
4,0.2165005175140557,0.2537631188298126,0.24831900046869043,0.1,0.9182676067473066,0.918298035537568,0.9183326820094045,0.9182676067473066,0.9040537436839687,0.9033632483733518,0.9038851493878512,0.9040537436839687,0.9044109309445515,0.9036080477702548,0.9045348729092495,0.9044109309445515,0.8928382962683754,0.9339428651091465,0.8911084777006565,0.9350617628585386,0.8945748437411485,0.9328266419122766,0.8690130908520812,0.9243035107587769,0.8996916085051128,0.9064415815193247,0.8403577926015767,0.9428835489833641,0.8704272978788811,0.9242723679482573,0.9070959474611565,0.902939885914875,0.8366080661840745,0.946637225135707,0.2394354610792909,0.19072814879986896,0.3255255568133545,0.1838494773383123,0.33242127704231633,0.17415311974405812
5,0.20189518975132717,0.26918028150058404,0.2743779861213318,0.1,0.9217030696364016,0.9217703614075603,0.921860609653576,0.9217030696364016,0.8959577400091869,0.8937216682211419,0.8996642933857995,0.8959577400091869,0.890860641796122,0.8880536118418653,0.8968349502175669,0.890860641796122,0.8976070079139801,0.9366185710961136,0.8935756124033909,0.9392415402567095,0.9016749438223465,0.93401021118589,0.8500496524329693,0.920344645683137,0.9358600583090378,0.8775989268947015,0.7786537295330503,0.9674676524953789,0.842277755018435,0.9165619175588401,0.9455481972038263,0.8664972955253237,0.7593440685477914,0.9727665838623608,0.22095990376136102,0.1796206888735897,0.42335236072880184,0.12863280043264266,0.448628182253004,0.11884627323192747
6,0.19228957334411753,0.27258921716213363,0.2645231258613694,0.1,0.9248079231261275,0.9249157491304878,0.9250890613823234,0.9248079231261275,0.9018718419843822,0.9009854411620856,0.9019256661949785,0.9018718419843822,0.9052613675019844,0.904087478351067,0.9063611020673722,0.9052613675019844,0.9019714403508114,0.9390148644709997,0.895177339260141,0.9434696029050017,0.9088694601280284,0.9346019958226967,0.8649972351686547,0.9229242772741623,0.9030183077684315,0.9012595789659121,0.8300485142510613,0.9456561922365989,0.8694633231778768,0.9256507230255839,0.922579575596817,0.8962605548854041,0.8221302998965874,0.9570337657558193,0.21175208052976385,0.16999475362236433,0.4271397389417147,0.13332458993039317,0.44345994638886466,0.10987927678945487
7,0.18267831999191242,0.24601444742074652,0.22791332774576464,0.1,0.9281283914415288,0.9282499121979989,0.9284637053359492,0.9281283914415288,0.8929145613229215,0.8935253707758771,0.8952801877640715,0.8929145613229215,0.9066220659938768,0.906910712994041,0.9075377492519024,0.9066220659938768,0.9064318730467653,0.941656942823804,0.898362297605579,0.9469608073222249,0.9146477330664501,0.9364121605941054,0.8631393556909077,0.9120490450365479,0.8364386289290285,0.9311506981222918,0.8916009702850213,0.8937153419593346,0.8804355716878403,0.9233989116785266,0.8655438195832144,0.9336907449209932,0.8958487221155267,0.9133314932376484,0.19927258092930594,0.16319335235183483,0.27431009404892764,0.21003053588860662,0.2896128484601344,0.18098393665032758
8,0.17309334542548566,0.25373839385992325,0.2524375313634653,0.1,0.9317363461911641,0.9318177075766607,0.9319442909454455,0.9317363461911641,0.9030776297657327,0.9029664246329149,0.9028914153855256,0.9030776297657327,0.9060551082889217,0.9057483256692165,0.9057421031319459,0.9060551082889217,0.910887187570367,0.9446793639699458,0.9051970089693624,0.9483803063969126,0.9166493570255113,0.9410071942446043,0.8713022262885026,0.9222692945293792,0.8763803680981596,0.9190528634361234,0.8662825955124318,0.9255083179297597,0.8755725764060974,0.9245411904002915,0.8903481979230299,0.9153291253381425,0.8612793617964248,0.9339405649093753,0.18960908958637018,0.1548040976802654,0.34474907643722547,0.16034820057913987,0.36620835340885527,0.1576389160844079
9,0.16680415680581487,0.24189775410785477,0.23580088133457255,0.1,0.9342590396515664,0.9343527468631802,0.9345118791446778,0.9342590396515664,0.8980822232429949,0.8984848959474674,0.899398744089614,0.8980822232429949,0.9017462297312621,0.9020854725180447,0.902851110026836,0.9017462297312621,0.9142889269951929,0.9466818221561598,0.9074439194970425,0.9511449487554905,0.9212379855354345,0.942260385240195,0.8683332097025444,0.9168657205751487,0.8501089324618737,0.9294463963536226,0.8873559733171619,0.9046210720887246,0.8744657732705542,0.9192864794373806,0.8578737919272313,0.9308621014902848,0.891712217461959,0.9079952157512191,0.1828887748261503,0.1482148927881259,0.2493497885870501,0.2290161132785308,0.2672464194992495,0.21803133180229992
10,0.15573692168243022,0.6110968027309013,0.6895965381076322,0.1,0.9379388660097602,0.9380071073183845,0.9381139990351326,0.9379388660097602,0.8431327514928801,0.8327683346980533,0.867973075309427,0.8431327514928801,0.8254337226442907,0.812153499732214,0.8561994381195571,0.8254337226442907,0.9189437816222508,0.9497213860244668,0.9136521446970546,0.9531456353797786,0.9242970712087165,0.9463216523555349,0.7439070116235471,0.8869392484687966,0.9744597249508841,0.8030575539568345,0.6015767131594906,0.9903881700554529,0.7114609689813514,0.8748628327575696,0.9728344438749359,0.7835614443797321,0.5607918451765401,0.9902474928696292,0.16991477279738962,0.14036890860605875,1.217109725945697,0.027347749257613192,1.444527186183394,0.027892126511121034
11,0.21752796210485423,0.26120677235466544,0.25925472921451376,0.1,0.9148321438582117,0.9149032398388471,0.9149957926825639,0.9148321438582117,0.8926274689940285,0.8932655736973321,0.8951593699595981,0.8926274689940285,0.8970971765506294,0.89764168267046,0.8992739738723645,0.8970971765506294,0.8886068809926678,0.9310621662187162,0.8847312955094248,0.9335931119770399,0.8925165700473969,0.9285449060106753,0.8629835873388042,0.91172583081571,0.8350822461712989,0.9317830953299884,0.8928138265615525,0.8925138632162661,0.8700508341089711,0.9148247219484725,0.8441233676021117,0.9336206896551724,0.8976215098241985,0.8967706320728678,0.23972563040340045,0.19311775344163729,0.2107922904963272,0.2995184011159152,0.22366544851473114,0.2927559411450141
12,0.17490765054095064,0.2745332242557364,0.284508489091754,0.08000000000000002,0.9320453941079655,0.9321606391040159,0.9323691719050934,0.9320453941079655,0.9008383096003675,0.8990916357973909,0.9032287163237743,0.9008383096003675,0.894886041501304,0.8926182580577232,0.89907829912626,0.894886041501304,0.9115338192501661,0.9448356739032772,0.9033939169139465,0.9501742610042597,0.9198217421681741,0.9395567417034114,0.859008898685607,0.9235265465172917,0.9306562886962675,0.8865085437388421,0.7976046088538509,0.9637707948243993,0.8501939237233355,0.9190393013100436,0.9382914214374889,0.8746571357326905,0.7772196779435663,0.9681663446499218,0.18929545413908166,0.15738733747104347,0.4593216152232902,0.10083794910256771,0.49783914615872543,0.09196992011308885
13,0.14884995847951799,0.25661265785437115,0.2643318223242236,0.08000000000000002,0.9412018370383147,0.9412890857093739,0.9414479801433784,0.9412018370383147,0.9024460266421681,0.902168898432103,0.9021026885360646,0.9024460266421681,0.9041274520920739,0.9037385221963824,0.9038016721147359,0.9041274520920739,0.9233651513306418,0.9523032165157619,0.9161647706149156,0.9569843334387926,0.930679607983836,0.9476676723137619,0.8693981090014605,0.9221463593456445,0.8818025884921253,0.9144778696719077,0.8573377804730139,0.9299445471349354,0.8725408909323886,0.9231677949929574,0.8907356109572176,0.9119389587073609,0.8550746048160732,0.9346766031833655,0.16193396242391933,0.1329716568990775,0.375968353572152,0.13614264449374885,0.41188153238676867,0.1304433720010886
14,0.13913086460055143,0.25867357920127165,0.2508240733196411,0.08000000000000002,0.9453847646564177,0.9454541237819557,0.9455758163951768,0.9453847646564177,0.89991961414791,0.8991551054101922,0.899735225160189,0.89991961414791,0.9086631137317156,0.9077325062017835,0.9092572408899402,0.9086631137317156,0.9287342092676476,0.9557283929039587,0.9225480697570427,0.9597262037091207,0.9350038710652039,0.9517637502900905,0.863111599780099,0.9211276528349699,0.8953886263646733,0.902384963205958,0.8330806549423894,0.9406654343807763,0.8752613240418119,0.9279549215151379,0.919622518711357,0.9028019491820397,0.8349830107844586,0.9545496365811023,0.1504835896215381,0.12483283866371199,0.3703698094024571,0.15549093958017599,0.39121026188249874,0.12310535917598484
15,0.12912905331879812,0.2862868403078373,0.28332642132036406,0.06400000000000002,0.9492442700360076,0.9493345741296824,0.9495299997579137,0.9492442700360076,0.895670647680294,0.8957900425287668,0.8959478803818713,0.895670647680294,0.8978909173375667,0.897954151596015,0.898029556461476,0.8978909173375667,0.9339543235508669,0.9587856292457455,0.9251977987363116,0.9644819650572986,0.9428781841871707,0.9531561847296356,0.8630849220103987,0.9157274708965262,0.8579775280898876,0.9190950563262266,0.868253486961795,0.9123844731977819,0.8674077891481999,0.9169778269487853,0.8645435867331963,0.9188839615668883,0.8702910326488403,0.9150795841383752,0.13995562030729214,0.11573202456155982,0.40850587642877395,0.1718953431126777,0.3963856808621895,0.1829707597895269
16,0.10986916915386197,0.332195866878239,0.32087328832346046,0.06400000000000002,0.9564170565701431,0.9564996148513972,0.9567028556886238,0.9564170565701431,0.8969912723932016,0.8961176318418946,0.8968636331107079,0.8969912723932016,0.9028234493706769,0.9017088468827704,0.9035966130022659,0.9028234493706769,0.9433239247060583,0.9645959831854274,0.9338971445491052,0.970716803760282,0.9529429537171668,0.9585518681828731,0.8586065573770492,0.9189848265895953,0.8941234405778069,0.8985340868950901,0.8258035172832019,0.9403881700554528,0.8665940224159402,0.923577670768682,0.9157756209902944,0.8960117657236785,0.8224257645146994,0.9528935504646242,0.11714902898486745,0.10010224259683716,0.5505485659919596,0.13094395178456852,0.5334352445624182,0.1276468365061758
17,0.10345051739046329,1.5706882531565156,1.5316890697655514,0.06400000000000002,0.9604418666494174,0.9604984571370043,0.9606230331395632,0.9604418666494174,0.4222553973357832,0.30485607900865214,0.6998383623992943,0.4222553973357832,0.4336092527497449,0.3201224692802122,0.7155700447288397,0.4336092527497449,0.9484267536215588,0.9679164335012125,0.9413001022970334,0.9724968373705665,0.9556621409823064,0.9633789742399629,0.5630916196265741,0.14743263853584138,0.39454788852379213,0.8859470468431772,0.9830200121285627,0.08040665434380777,0.5719060678779568,0.16331658291457288,0.4027886762841794,0.9103641456582633,0.9858176983306249,0.08970466464256141,0.11863326091064236,0.09336768569226157,0.0588520510117596,2.848492067225658,0.05636180908911321,2.8404519506122754
18,0.2222545584324318,0.23351798569428495,0.24167593005820323,0.06400000000000002,0.9111810661434414,0.9114445296536388,0.9120002158218135,0.9111810661434414,0.9089917317409278,0.908363362635445,0.9088659415952501,0.9089917317409278,0.9101938995350947,0.9092534198685024,0.9108956709876399,0.9101938995350947,0.885195644903571,0.9275742835374787,0.8711942509188656,0.9370751924215512,0.8996544366183885,0.9182640983987004,0.875910122915525,0.9281472414887347,0.9056176137283471,0.9108461606904529,0.8480897513644633,0.9461182994454713,0.8772093023255814,0.9292098677154094,0.9228510846517697,0.9034500738680803,0.8358694046387946,0.9564817370503266,0.23870340261868583,0.20237075534703977,0.313830149524852,0.15857460857436986,0.34806147732424375,0.15839825217963022
19,0.17088887737642036,0.27260657108293684,0.2649272832926986,0.06400000000000002,0.9316716617434615,0.9318074272923473,0.9320725866156636,0.9316716617434615,0.8985415709692237,0.8985219875096461,0.8985034535888728,0.8985415709692237,0.9054314548134709,0.9050584010692944,0.905114919412312,0.9054314548134709,0.911190202617493,0.9444765659220324,0.9016305553501442,0.9507789993532836,0.9209547368619824,0.9382571362265026,0.865923059412702,0.9183946797210548,0.8667780647121374,0.9178436259577217,0.8650697392359006,0.9189463955637708,0.8743408166340214,0.9241887101172621,0.8920830130668717,0.9132309350579358,0.8572905894519132,0.9354126414573558,0.18429548166493667,0.1544232280130553,0.38196825127399453,0.16438429437230498,0.4167051114347777,0.13710563245948162
20,0.15205126392415183,0.27953051910590215,0.2620501488680363,0.06400000000000002,0.9387150793821917,0.9388405555253418,0.9391048988415435,0.9387150793821917,0.8972783647220947,0.8970362793223473,0.8969404086559962,0.8972783647220947,0.9069055448463544,0.9063325749216979,0.9067453334994712,0.9069055448463544,0.9203716673670449,0.950189556571976,0.9104160508424475,0.9567339928713431,0.9305474252695584,0.9437340450220468,0.8627962267045018,0.9179094204561098,0.8730405090796213,0.911510070172241,0.8527895694360218,0.9243992606284658,0.8750380517503805,0.9258221900975786,0.9023701145816984,0.9094701340197036,0.8493130447628896,0.9427730241972583,0.16350733528687508,0.13754606569658362,0.38270151478742515,0.17260307517500906,0.3947025140227777,0.14048004406251255
21,0.1402986309234982,0.3002688275655705,0.2976037615760003,0.051200000000000016,0.9427686381048894,0.9428777265375692,0.9431071139540117,0.9427686381048894,0.8979099678456591,0.8971092488159409,0.897715638117159,0.8979099678456591,0.9066787617643723,0.9057120774716235,0.9072671621365669,0.9066787617643723,0.9255801347650957,0.9535069742457948,0.9162719265783436,0.9595971466513109,0.9350794040447911,0.9474936180088187,0.8602421002986952,0.9195838986883763,0.8932419196865817,0.9004428697962799,0.8295936931473621,0.9395563770794825,0.8724624205795753,0.9264193115780063,0.9173863451197654,0.9009651334666551,0.8317328999852268,0.9533535743858681,0.15062084426608635,0.12674473423548455,0.4662032319634274,0.12578349571004188,0.5232700690972126,0.10294605722225716
22,0.11960525349531981,0.4211644540631996,0.38327490402087155,0.051200000000000016,0.9511848034670864,0.9513096097815912,0.9516585019290816,0.9511848034670864,0.893833256775379,0.8921110743695922,0.8954503431101015,0.893833256775379,0.9010091847148203,0.899273116196934,0.9037596056420223,0.9010091847148203,0.9367550655542313,0.9602532741892066,0.9240378432993478,0.9686312011522751,0.9498272183091943,0.9520190299373404,0.849809113800666,0.9178988499622575,0.9153105861767279,0.8833433039911118,0.7930563978168587,0.955268022181146,0.8609208220487494,0.9231581726960655,0.9341400172860848,0.8848392811946343,0.7983453981385729,0.9649461772012145,0.12597979979449625,0.11048465778945041,0.7441954382193615,0.11320040448644761,0.7215502694588382,0.08849562678728219
23,0.10906506034930508,0.3077128166362787,0.2785158618897696,0.051200000000000016,0.9565320511438367,0.9566241788356206,0.9568686856742727,0.9565320511438367,0.8964170877354157,0.8956924633078305,0.8961074104178715,0.8964170877354157,0.9069055448463544,0.9060248680548676,0.9072912891750714,0.9069055448463544,0.9435441714584423,0.9646617507858787,0.9329715161248638,0.9715533272132383,0.954359197084427,0.95786725458343,0.8587092731829574,0.9182378535170413,0.8882047958522359,0.9009249377445749,0.8311097634930261,0.9362292051756007,0.8732437857032577,0.9264402831287519,0.9144704931285368,0.9028202217759539,0.8355739400206825,0.9513294691323949,0.11603084163738565,0.0996722936649937,0.4498579590486292,0.16191877438546579,0.4480173954505227,0.12563109939725584
24,0.09836708709020442,0.4265012078346654,0.4024116977439309,0.04096000000000002,0.9612396415044165,0.9613093266378406,0.9614879410943864,0.9612396415044165,0.8960151584749656,0.8950798351047049,0.8959431802137957,0.8960151584749656,0.9023698832067127,0.9013659464442941,0.9028372740494507,0.9023698832067127,0.9495684374912332,0.9685240199139707,0.9405705816969248,0.9743415103866975,0.9587401099004853,0.9627755859828266,0.8569623252507701,0.9183167200396914,0.8944765045342127,0.8968372830587613,0.822468162522741,0.9408502772643254,0.8666150271107669,0.9230081373513368,0.9109265591923139,0.897799425937201,0.8264145368592111,0.9496733830159169,0.10413977789379286,0.09005267963178032,0.7116127142594085,0.1480076160534249,0.7148231275479201,0.12179331125295995
25,0.08289979469361929,0.3867026771016002,0.3728841760826565,0.04096000000000002,0.967003744510806,0.967067751372649,0.9672600950211545,0.967003744510806,0.8954409738171796,0.8944278804309675,0.8954689419012063,0.8954409738171796,0.8995917904524322,0.8982796006118077,0.9007209404312329,0.8995917904524322,0.9571018772016707,0.9731917105101808,0.947303196211897,0.9795234680803545,0.967105387389769,0.9669412856811325,0.8557623762376237,0.9179988291980006,0.8960026538397744,0.8951435847896725,0.8189812007277137,0.9420517560073938,0.8612829952220569,0.921320360744591,0.9166388796265422,0.8908075601374571,0.812232235189836,0.9539976078756095,0.08533266225522847,0.0780080934156799,0.6194277295556667,0.1568529936609799,0.6659475806194994,0.11685707108024845
26,0.07450610624048933,0.37644993532389115,0.3521754488624376,0.04096000000000002,0.9711076133594946,0.9711466543960202,0.971246930103913,0.9711076133594946,0.8946371152962793,0.8937693307985377,0.8944326227441916,0.8946371152962793,0.898911441206486,0.897847051628168,0.8993519383901097,0.898911441206486,0.9623157973677303,0.9765731535332579,0.9554906085370167,0.980929078180243,0.9692391940631078,0.9722557437920631,0.855523187150618,0.917084632416068,0.88992628992629,0.8971797365396517,0.8236810187992722,0.9378927911275415,0.8617507947584709,0.9203270923633764,0.9068211488250653,0.8947002606429192,0.8209484414241395,0.947465268193946,0.07776457726611304,0.06894754191821181,0.5633728897270891,0.16988569106371312,0.6042828838585262,0.1296169318577639
27,0.06842808850825306,0.48285292727852624,0.44461365728262586,0.03276800000000001,0.973536873728771,0.9735725408065866,0.9736692926399565,0.973536873728771,0.8902733118971061,0.889115374011185,0.8903332756677982,0.8902733118971061,0.8993083115999546,0.8981377377057983,0.900026946306874,0.8993083115999546,0.9654836230009187,0.9785431235431236,0.958653685053149,0.98289627721845,0.9724115792057707,0.9742283592480854,0.8481042842381369,0.914116219495753,0.8913951545530493,0.8896859417373808,0.8088235294117647,0.9399260628465804,0.8616822429906542,0.9208415047245498,0.9112172623949926,0.8930578369499438,0.8172551336977397,0.9504094212899071,0.07126919212586312,0.06349752038466464,0.8103505188529815,0.14774999114849982,0.813452338112309,0.11291264143861501
28,0.054492701771835156,0.5543885612051778,0.5450574857475219,0.03276800000000001,0.9797753293516462,0.9797944891937478,0.9798436152674194,0.9797753293516462,0.8927997243913642,0.8907584026112312,0.8953589344270116,0.8927997243913642,0.8959632611407189,0.8936376398214894,0.9005819339684322,0.8959632611407189,0.9735635639397242,0.9836233486585578,0.968740067679997,0.9866666666666667,0.9784353343278509,0.9805987468090044,0.8468039714449823,0.9175535438286597,0.9229118225719907,0.8785623678646934,0.782292298362644,0.9601663585951941,0.8513327392044073,0.9199843020974142,0.9425905992106207,0.8744197612732095,0.7761855517801743,0.9705584690403901,0.05710203145778959,0.05023076666764288,0.9776762557794262,0.138186230421016,1.0613686028812257,0.0879033221727757
29,0.0479151484976765,0.6234762543075721,0.7243412891230706,0.03276800000000001,0.9820824079863731,0.9820976493326263,0.9821370327191893,0.9820824079863731,0.8544441892512632,0.853078989445997,0.8535454766404147,0.8544441892512632,0.8625694523188571,0.8604252690028562,0.863118011093063,0.8625694523188571,0.9765671263006513,0.9854961165895803,0.9722263811947897,0.9882270579312759,0.9809468058991258,0.9827802274309585,0.799462067874377,0.8857644991212654,0.8358974358974359,0.8643039310526779,0.7660703456640389,0.9083179297597043,0.8082885162923126,0.8928950159066809,0.8697872340425532,0.8589645498597297,0.7549120992761117,0.9296163400496826,0.04972066386142829,0.0504926036357895,1.0667983981832492,0.19147848613004226,1.4529452995343162,0.13549530728925965
30,0.2478163365071692,0.2639904496716451,0.27213181103285594,0.026214400000000013,0.9024486657035871,0.9026828205662959,0.9031020859021064,0.9024486657035871,0.9034795590261828,0.9028096173244923,0.9032734278038119,0.9034795590261828,0.9040707563215784,0.9028151737888466,0.9053456554982533,0.9040707563215784,0.8735006570547172,0.9206150534867262,0.862384983437615,0.9281224571623996,0.8849066223539853,0.9132281271756788,0.8683736590713335,0.9238021848510947,0.8979757085020242,0.9065029801619073,0.8406610066707095,0.9417744916820703,0.8674604417985273,0.9248334073745003,0.9232949808237452,0.894167167769092,0.8179937952430196,0.9576777992455607,0.27011147508849664,0.2211427834306104,0.4097362802105609,0.1243936710559294,0.4525448164794648,0.11061552483790918
31,0.180458877044456,0.24924051334831623,0.25520416106452126,0.026214400000000013,0.928358380588916,0.9284906996145871,0.9287337928132126,0.928358380588916,0.8984267340376665,0.8985971231148173,0.8988519747820342,0.8984267340376665,0.9021431001247306,0.9022023706415243,0.9022733394059118,0.9021431001247306,0.9068115101995027,0.9418124080603357,0.8979799663019127,0.9476318015224133,0.9158184942500519,0.936064051984219,0.8670824254264032,0.9178088556428007,0.8595262922687323,0.9228253760627861,0.8747725894481504,0.9128465804066543,0.872920041231041,0.9204388310131834,0.8701012769704976,0.9223094688221709,0.8757571280839119,0.9185757659398289,0.19589038712643636,0.16126777656609192,0.29381061500545086,0.18683520399236264,0.33874948157176404,0.18690783294690502
32,0.16094571813344258,0.2902512890543959,0.3076740964589874,0.026214400000000013,0.9358833380049879,0.9360146119199689,0.9362842846402444,0.9358833380049879,0.8984267340376665,0.8980579841013878,0.8980244812892461,0.8984267340376665,0.9021997958952263,0.9018093065463959,0.9018564759067703,0.9021997958952263,0.9166923472008218,0.9478880068228683,0.9067765297073603,0.9544165911844629,0.9268274260248881,0.9414481318171269,0.8635136177764061,0.9191166384710348,0.8791830322073841,0.9095104515428468,0.8483929654335961,0.9289279112754159,0.8700173310225303,0.9216087252897068,0.887880652107044,0.9105603448275862,0.8528586201802334,0.9329285122826387,0.1723055824490182,0.14570798602996066,0.42178014095045835,0.1465314581580664,0.48142184811792726,0.15351982537422504
33,0.14558892490120126,0.2489767387629344,0.2475910414534505,0.02097152000000001,0.9420571091801606,0.9421748677506773,0.9424299190099292,0.9420571091801606,0.9021589343132751,0.9021268982222778,0.9020978831235439,0.9021589343132751,0.9109876403220319,0.9106535066341102,0.9107132798793984,0.9109876403220319,0.924707684261646,0.9529083283683221,0.9147803913597812,0.9594203580418265,0.9348528051060294,0.9464841030401485,0.8706150341685649,0.9213369033330255,0.87207179799209,0.9204021398266002,0.8691631291691935,0.9222735674676525,0.8818304982688544,0.9286039108685766,0.8988798526929569,0.91808290621347,0.8654158664499926,0.9393688471800533,0.15579767913133016,0.13155830982620553,0.30363927777805816,0.1902583158731352,0.3372896342754256,0.16180100071453152
34,0.12690930652867902,0.32893503157501597,0.32233533812347814,0.02097152000000001,0.9494526977008273,0.9495385935550704,0.9497201252538078,0.9494526977008273,0.8940055121727147,0.8938212665314563,0.8937176840397278,0.8940055121727147,0.9035604943871187,0.9031815992895885,0.9032279910695403,0.9035604943871187,0.9341966148635372,0.9589661308672949,0.9258373205741627,0.9643959396819809,0.9427082349830995,0.9535971223021583,0.8588469184890656,0.9151420428426956,0.8663992594878124,0.910371318822023,0.8514251061249242,0.9199630314232902,0.871864406779661,0.922685332484887,0.8894866277282508,0.9117858426158821,0.8549268725070173,0.9338485601251265,0.1358567910784212,0.11486660679185982,0.46868318879153503,0.18680044771048893,0.5140383147018324,0.1641639797681305
35,0.1189386002066967,0.28049721485931756,0.27405207056295766,0.02097152000000001,0.9525072410645623,0.9526031236982722,0.9528361008111491,0.9525072410645623,0.8947519522278364,0.8953643007730742,0.8971761297978778,0.8947519522278364,0.9017462297312621,0.9020186346844152,0.902557945109027,0.9017462297312621,0.9382822131729368,0.9614032218497015,0.9282770601171666,0.9679274574835932,0.9485053911664181,0.9549663495010443,0.86558627264061,0.913517338995046,0.8382332055105809,0.9331084337349398,0.8947847180109157,0.8947319778188539,0.8739544694159576,0.919496446323222,0.8607449856733524,0.9285982360668043,0.8875757128083912,0.9105713497101849,0.125646705247431,0.10926816492557169,0.3203244179517341,0.22709876085007197,0.3600468177950909,0.1989967700674374
36,0.1051161594004703,0.3634234052160532,0.31141326890157756,0.016777216000000008,0.958494146057483,0.958560429300179,0.9587117543155214,0.958494146057483,0.8709807073954984,0.8726465176098683,0.8840822712517626,0.8709807073954984,0.878671051139585,0.879994921226557,0.8881629375830451,0.878671051139585,0.9459365843155244,0.9663176926890438,0.9379896773235306,0.9714453239519203,0.9540192986762845,0.961243908099327,0.8449810279406692,0.8895117273934209,0.7752880111406507,0.9504045392455606,0.9284414796846574,0.8359519408502772,0.8537851872096202,0.8963178294573644,0.7942036354391763,0.946678947907072,0.9230314669818289,0.8510442543012237,0.1140079129138886,0.09542754430902492,0.19610386469285868,0.5047407971463934,0.23002039296448012,0.3817562847836888
37,0.11377723814594859,0.3155935858733538,0.3081124881549627,0.016777216000000008,0.9551233676160906,0.9552323455378827,0.9555434055768198,0.9551233676160906,0.8959577400091869,0.8959330037633949,0.8959098523692564,0.8959577400091869,0.9039006690100918,0.9037503927752023,0.9036726036566005,0.9039006690100918,0.9418156065378236,0.9634768366869443,0.9296870688227827,0.9714319414956357,0.9542647808599429,0.9556509631004874,0.8624772313296903,0.916328038418914,0.8635258358662614,0.9156515319306017,0.8614311704063069,0.9170055452865065,0.8737806240226376,0.9224149768846981,0.8809309309309309,0.9178356713426854,0.8667454572314965,0.9270402060907167,0.11739148680969853,0.10777772864607602,0.40858365688126863,0.209868630183921,0.4444926914920739,0.1924737771843101
38,0.09028943798667617,0.35130663464920375,0.33623607619398915,0.016777216000000008,0.9649697779886012,0.9650262586985437,0.9651701310410307,0.9649697779886012,0.8987712448323381,0.8986441676739876,0.8985600407895497,0.8987712448323381,0.9008957931738293,0.900653170551764,0.9005826158800075,0.9008957931738293,0.9543752574231474,0.9715712235922681,0.9462790740843868,0.9767785518260502,0.9626111751043299,0.966419122766303,0.8655122434968342,0.9188417806012061,0.8710271764163979,0.9153444006236816,0.8600667070952093,0.922365988909427,0.8692595362752431,0.9202045101798594,0.8803211634600818,0.9132010510102383,0.8584724479243611,0.9273162204434631,0.09408392471617416,0.08366820314190324,0.47676597781224284,0.23613748039125532,0.4940676251507535,0.19800764487455666
39,0.08053845748394425,0.4682110259709405,0.49163593462598554,0.013421772800000007,0.9687358502770651,0.9687857244649583,0.9689214667360784,0.9687358502770651,0.8961874138723014,0.8948923878196574,0.8968161250050303,0.8961874138723014,0.8993650073704501,0.897615508004246,0.901983333644947,0.8993650073704501,0.9592765264281301,0.9746290593505039,0.9512263047474053,0.9797950185280736,0.9674641690428083,0.969517289394291,0.8551978215601473,0.9190906649959725,0.9064516129032258,0.8909422175950026,0.8094299575500303,0.9490757855822551,0.8586895947774859,0.9218578032137354,0.9311118784530387,0.8838426473071079,0.796720342738957,0.9632900910847364,0.0839591697731521,0.07420717961769482,0.7958135810139605,0.14908071286569202,0.9514282409860322,0.09559854313130822
40,0.06539089701205864,0.40716753163741587,0.36531344188261305,0.013421772800000007,0.9753839740687237,0.9754131848003467,0.9754895743945637,0.9753839740687237,0.8846463022508039,0.8852398371422311,0.8867311911713822,0.8846463022508039,0.8990815285179725,0.8992864633476398,0.8996297998281142,0.8990815285179725,0.9678648164306959,0.9800516037345728,0.9618454423392511,0.9838737969665431,0.9739600052873085,0.9762589928057553,0.8520509610427867,0.9054721686350162,0.8284404983531434,0.9222658870890443,0.8770466949666464,0.8892791127541589,0.8699780861943024,0.917539145742611,0.8604247941048981,0.9240459083698797,0.8797459004284237,0.9111233784156776,0.06855075201073145,0.05989940619931932,0.4509642846081497,0.3331655313249209,0.5087100812041409,0.2442374389345892
