epoch,train_loss,val_loss,test_loss,learning_rate,train_accuracy,train_f1_weighted,train_precision_weighted,train_recall_weighted,val_accuracy,val_f1_weighted,val_precision_weighted,val_recall_weighted,test_accuracy,test_f1_weighted,test_precision_weighted,test_recall_weighted,train_f1_MI,train_f1_NORM,train_precision_MI,train_precision_NORM,train_recall_MI,train_recall_NORM,val_f1_MI,val_f1_NORM,val_precision_MI,val_precision_NORM,val_recall_MI,val_recall_NORM,test_f1_MI,test_f1_NORM,test_precision_MI,test_precision_NORM,test_recall_MI,test_recall_NORM,train_loss_MI,train_loss_NORM,val_loss_MI,val_loss_NORM,test_loss_MI,test_loss_NORM
1,0.5463875209192822,0.36383291424110414,0.38953277096615285,0.0001,0.7576475486923248,0.7525249799787419,0.7541354465612863,0.7576475486923248,0.8730013704888077,0.8727773059607445,0.8726418200853898,0.8730013704888077,0.8520506157496328,0.8514593914703013,0.8513049145059234,0.8520506157496328,0.6542959549411163,0.8134257416987222,0.7204618750140953,0.7750126379644452,0.5992609127914611,0.8558452735392631,0.8331582895723931,0.8974831750714484,0.8408540278619019,0.8924642464246425,0.8256021409455843,0.902558872612646,0.8051774157554117,0.88074313555849,0.8221175755734468,0.8697724615522978,0.7889212827988338,0.8919940970300683,0.6153524289984222,0.4855948688787058,0.44053657914417377,0.3017249966877094,0.48703590402645724,0.3194895618728229
2,0.3303388945202757,0.28643094645128125,0.32139252049278344,0.0001,0.8727861414428578,0.8732712816483281,0.8742548981803244,0.8727861414428578,0.8901324805847419,0.890141688348943,0.8901511138115282,0.8901324805847419,0.8750988588860016,0.874758771175714,0.8746364058447219,0.8750988588860016,0.8373416559574077,0.8955471982834844,0.8198666211285075,0.9079749468097822,0.8555778573974376,0.8834550614067733,0.8570367067914995,0.9107854956876565,0.8566547831253714,0.9110389610389611,0.8574189711567053,0.9105321713332097,0.8365491239742737,0.8989349545184441,0.8486575671216439,0.891073855913004,0.8247813411078717,0.9069359896698026,0.3692890316794772,0.29444176546477396,0.3671045343837012,0.22351739269451817,0.4332463876876448,0.23303176920328822
3,0.2734668709121992,0.2702956012105114,0.2987493627045252,0.0001,0.8933399381160575,0.8937301030283733,0.8945876591322044,0.8933399381160575,0.8980127912288717,0.8979139470443138,0.8978434458289932,0.8980127912288717,0.8882047226302113,0.8876561497336867,0.8877796639443658,0.8882047226302113,0.8634931135551329,0.9124766567107906,0.8462397349085147,0.9245627648779323,0.8814646682548913,0.9007024562709341,0.8665570830842797,0.917467652495379,0.870982276960048,0.9145936981757877,0.8621766280107047,0.9203597255701835,0.8521479267837131,0.9101230755256824,0.8740229885057471,0.8964838507649637,0.8313411078717201,0.9241837299391257,0.3021801351407252,0.24556609225382497,0.36123528444896574,0.1987720419369314,0.416340257187507,0.1990357317562614
4,0.2429874342481813,0.2645693108500711,0.28992816849948727,0.0001,0.9058962044036671,0.9061837960713904,0.9067941878515863,0.9058962044036671,0.8993832800365463,0.8991480934438929,0.8990708318662441,0.8993832800365463,0.8940797649983053,0.8934153968391905,0.8938153759369384,0.8940797649983053,0.8791287829887686,0.9229575643587634,0.8645555616011027,0.9329816055896193,0.8942017295391023,0.9131466319315221,0.8674390610893771,0.9189214062212405,0.8780079195857448,0.9122053718253244,0.8571216176033304,0.925737066567773,0.8590331554018494,0.9151698864407547,0.8869740723490142,0.898144036941657,0.832798833819242,0.9328537170263789,0.27041866214723764,0.21673892087072408,0.36920483521037345,0.18037744808564152,0.4159579320278551,0.17798387283193215
5,0.2204606608150066,0.2641156902592059,0.27976225642629454,0.0001,0.9157961993782889,0.9159986149804944,0.9163977988577076,0.9157961993782889,0.8992119689355871,0.8989252923582217,0.8988687522177905,0.8992119689355871,0.8973562309343577,0.8965948038649385,0.897283037247246,0.8973562309343577,0.8914333317906235,0.9312287820065552,0.8798925556408289,0.9390305911289274,0.9032808718978034,0.9235555452177149,0.8668828720114639,0.9189065012634965,0.8796877391703658,0.9108297659167501,0.8544454356229557,0.9271277582050806,0.8626917554598352,0.9180460962518605,0.8956535383649773,0.8983140612587166,0.8320699708454811,0.9386644530529422,0.243210019622374,0.19743348778387823,0.3730077817226234,0.17725040924235963,0.404247071793569,0.17024551832250187
6,0.20013555746681738,0.2682453489102093,0.2772463301173335,0.0001,0.9242819093565362,0.92443686508164,0.9247338626330491,0.9242819093565362,0.8960712654179991,0.8960566848491022,0.8960427140151805,0.8960712654179991,0.8933453847022935,0.8929536700245976,0.8929553903948338,0.8933453847022935,0.9021750220284747,0.9382389281552489,0.8922687410560305,0.9448618302334084,0.9123037385807274,0.9317082247860067,0.8646034816247582,0.9156704661291817,0.8652471709350804,0.9152463875509448,0.8639607493309545,0.9160949378824402,0.8597742127153892,0.9139471285323609,0.8764385221078135,0.903406019102541,0.8437317784256559,0.9247371333702269,0.2203956868943818,0.17952618391141978,0.3510442829380433,0.2045132122879875,0.3653291805115129,0.19682910053857736
7,0.18331270994831675,0.2678165753691531,0.27931802346671103,0.0001,0.9316189614697077,0.931746985639839,0.9319941279445842,0.9316189614697077,0.8980698949291914,0.8979368681629596,0.8978546618774753,0.8980698949291914,0.8985990283583776,0.8980820217169774,0.8982963044555264,0.8985990283583776,0.9115672785004039,0.9442581505995541,0.9024264705882353,0.9503257041216591,0.9208951584160273,0.9382675846669147,0.8664022154030387,0.9176014402437336,0.8723436322532027,0.9137629861174956,0.8605411834671425,0.9214722788800297,0.8657743213938532,0.9185238981435251,0.8888377091969907,0.9042809902582893,0.8438775510204082,0.9332226526471131,0.20143233734533328,0.16495712419988912,0.3710335280098345,0.18582745409314183,0.38901756876813515,0.1812443738004991
8,0.16822181379116496,0.2805793858407675,0.28837166330785,0.0001,0.9381375948540127,0.9382521890538762,0.9384842130981033,0.9381375948540127,0.8980698949291914,0.8976674760089892,0.8976934002495004,0.8980698949291914,0.8976386848943623,0.8968600293865834,0.8975988055010292,0.8976386848943623,0.9199884862159577,0.9495754554125777,0.9108626902993308,0.9556092102938578,0.9292989926654036,0.9436174171938966,0.8646599438926378,0.9182505152278452,0.882252823766053,0.9073219295863879,0.847754980672019,0.9294455776005933,0.8629556799273937,0.9183121449824182,0.8967305878654511,0.8981481481481481,0.8316326530612245,0.9394023242944106,0.18282705516716755,0.15256061903927304,0.4178365942198729,0.16992236595546853,0.4348574327704098,0.16170902659318276
9,0.15282635811371076,0.2954479633209748,0.30414114908476547,8e-05,0.9440244664125261,0.9441218529626354,0.9443230985923318,0.9440244664125261,0.8951005025125628,0.8946829929632082,0.89469875816252,0.8951005025125628,0.8953225624223251,0.8946381109031779,0.8951037409907333,0.8953225624223251,0.9275566994025773,0.9543920401036518,0.9189248895434462,0.9600696691890365,0.9363522106961301,0.948781168589505,0.8606961401380148,0.9158767229930851,0.8783470051075685,0.904895484571532,0.843740707701457,0.9271277582050806,0.8605193827625142,0.9162258691622587,0.8896498054474709,0.8985545801188259,0.8332361516034985,0.9346061612248663,0.16504237197783836,0.1393037632996336,0.4402390030361172,0.17725540578797244,0.4510454243049026,0.17331138102869903
10,0.1368885198142356,0.29822513612234847,0.29837579210859655,8e-05,0.9508661598213837,0.9509430469236806,0.9511040686182306,0.9508661598213837,0.8945865692096848,0.8943497891659603,0.894258375982055,0.8945865692096848,0.897186758558355,0.8966740619796476,0.8968619101443811,0.897186758558355,0.9363490941557234,0.959991114332815,0.9285253158719912,0.965102611721009,0.9443058395392898,0.954933475995534,0.8611821326515265,0.9150326797385621,0.8712720632988435,0.9085923217550275,0.8513232233125186,0.9215649916558502,0.8639760837070254,0.9173628768616056,0.8865030674846626,0.9034162046145591,0.8425655976676385,0.9317469101641763,0.14800169756379697,0.124448110737385,0.4292110553605185,0.19419619131266422,0.4264249977988324,0.18161612449746048
11,0.12415842475880536,0.3072745332493527,0.3060261126784009,8e-05,0.956078194884165,0.9561478070865707,0.9563043184660334,0.956078194884165,0.895043398812243,0.8949017920717338,0.8948142123482358,0.895043398812243,0.8969607953903513,0.8965442491005453,0.8966011400640534,0.8969607953903513,0.9431074244904032,0.964232680502777,0.9351245689416712,0.9694354971433945,0.9512277476598698,0.9590854112393004,0.8624045515795777,0.9151666205114003,0.8685162846803377,0.9112132352941177,0.856378233719893,0.919154459484517,0.8642857142857143,0.916955017301038,0.8826747720364742,0.9054126955583528,0.8466472303206997,0.9287954251983029,0.133720328932235,0.11429309433479921,0.4387244174823813,0.20416234342543327,0.43577649937942625,0.1912676575061466
12,0.11424570625707502,0.32378021745771074,0.3305318296669486,8e-05,0.9602923334266618,0.9603518762492241,0.9604893365866151,0.9602923334266618,0.8968136135221563,0.8962469911876728,0.8964725287343962,0.8968136135221563,0.8966783414303469,0.8958368786107354,0.8967086854980291,0.8966783414303469,0.948541656975392,0.9676740638570202,0.9409517129356173,0.9726024178483734,0.9562550413626217,0.9627954037960551,0.8620084001527301,0.9175977016735829,0.8861673732140053,0.9028986807861438,0.8391317276241451,0.9327832375301317,0.861344856341445,0.9176608292441363,0.8973305954825462,0.8963151877583326,0.828134110787172,0.9400479616306955,0.12340164190380398,0.10372215565464912,0.5094195556813392,0.17306280412130814,0.5158102081955543,0.16432367476767729
13,0.10233895533554353,0.33660387783194307,0.3441896874437816,6.400000000000001e-05,0.9641259790513522,0.9641761553039616,0.9642941638901062,0.9641259790513522,0.892987665600731,0.8925976484171685,0.8925735410998055,0.892987665600731,0.8939102926223026,0.8932360547575271,0.8936517884162761,0.8939102926223026,0.953483825925064,0.9708052652181279,0.9463744548747136,0.975404158399568,0.9607008197490104,0.9662495347971716,0.8581162931556632,0.9140997433076641,0.8742672014810243,0.9039891205802357,0.8425512934879572,0.9244390877062859,0.858754512635379,0.9150533743441288,0.887041640770665,0.8978341913722705,0.8322157434402332,0.9329459509315624,0.10891450301427907,0.0949329039987621,0.5163913730909859,0.1948178829237198,0.5216620637902192,0.18806089824065567
14,0.0920100227368149,0.345579782962908,0.3477386690077708,6.400000000000001e-05,0.9684334460453864,0.9684710822533802,0.9685578736230278,0.9684334460453864,0.8940726359068067,0.8937581879114017,0.8936918220252997,0.8940726359068067,0.896000451926336,0.8954062970048277,0.8957112686647234,0.896000451926336,0.9590225809157247,0.9743290344050489,0.9529392154683853,0.9782412455011196,0.965184115252584,0.9704479903237812,0.8600105652403592,0.9148027373352318,0.873256704980843,0.9064348775825977,0.8471602735652691,0.9233265343964399,0.8619422572178478,0.9165798178440346,0.8875675675675676,0.9008639885989134,0.8377551020408164,0.9328537170263789,0.0984260195404838,0.08438825585084771,0.5195450570731275,0.2077537383614243,0.5197439051765417,0.19307286494544573
15,0.0836517439620223,0.3720759109799423,0.3883839803871469,6.400000000000001e-05,0.9718722405289569,0.9719039102263108,0.9719794813525628,0.9718722405289569,0.8962996802192782,0.8954239249292901,0.896284245323833,0.8962996802192782,0.8947011637103153,0.8935209836713917,0.895347551471743,0.8947011637103153,0.963473299522673,0.9771307829700797,0.9577054953201742,0.9808291734045794,0.9693109981429027,0.9734601786378861,0.859507968435711,0.9178206172504298,0.8959677419354839,0.896481612446959,0.8258994944989593,0.9402002595957722,0.8568576255567502,0.9167187918863372,0.9053878610840637,0.8889948006932409,0.813265306122449,0.946227633277993,0.0891178298775756,0.07677514992073314,0.6276409834812301,0.16188778717280028,0.6568662199324795,0.1548334254251261
16,0.07633002250190639,0.3836692550945848,0.39528841428764255,6.400000000000001e-05,0.9741910935940786,0.9742192282969484,0.9742885714765452,0.9741910935940786,0.8929305619004112,0.892162252398841,0.8926816235882136,0.8929305619004112,0.8934018754942944,0.8923473293002359,0.893703823950746,0.8934018754942944,0.9664779985640088,0.9790186934978377,0.9608781102829385,0.9826028889748005,0.9721435404903487,0.9754605508001488,0.8557359390628606,0.9148771961683388,0.8867804177962048,0.8963615336713816,0.8267915551590842,0.9341739291674392,0.8558771862827466,0.9154228855721394,0.8989250762072838,0.8904002092597436,0.8167638483965015,0.9418926397343663,0.08154205337440203,0.06989147495649277,0.6341982364276613,0.18145415751074534,0.6625668353168294,0.16815018222135092
17,0.0702834188005354,0.3884982637016127,0.39925652151120716,5.120000000000001e-05,0.9765602004407975,0.976583829429688,0.9766426866684447,0.9765602004407975,0.8934444952032892,0.8926854915505799,0.8931978710021613,0.8934444952032892,0.8928369675742854,0.8917454538308389,0.8931902694092038,0.8928369675742854,0.9695414898082932,0.9809499915398124,0.964350666221282,0.9842635849520531,0.9747884972518711,0.9776586341644957,0.8564615384615385,0.915274246276789,0.8873127191584316,0.8968677700658481,0.827683615819209,0.9344520674949008,0.8549361474344268,0.9150356071124647,0.8991474987936303,0.8894209838920331,0.814868804664723,0.942169341449917,0.07490186531677706,0.06469398653049262,0.6448780717598139,0.18391127689181408,0.6602686595404521,0.17097210538174426
18,0.06282687172656637,0.3991737750879212,0.40782658800393523,5.120000000000001e-05,0.9796472184531886,0.9796660600082151,0.9797146262091511,0.9796472184531886,0.8936729100045683,0.8930801024204525,0.8932987225883448,0.8936729100045683,0.8951530900463225,0.8943156392113719,0.89512948061513,0.8951530900463225,0.9735410230804409,0.9834635059700535,0.9687581262305435,0.9865075185770289,0.9783713819430115,0.980438221064384,0.8577540106951872,0.9151089632533965,0.8821495914519171,0.9002511661284536,0.8346714243235207,0.9304654181346189,0.8593939393939394,0.9164114573950639,0.8946372239747634,0.8954409434958635,0.8268221574344023,0.9383877513373916,0.06657958221749975,0.057771578829291216,0.636268781086403,0.20955611177656017,0.6447684932167509,0.1925609867753727
19,0.05803846649782889,0.40887062460551693,0.41831831030489536,5.120000000000001e-05,0.9811835483477275,0.9811999968482032,0.9812429457201447,0.9811835483477275,0.8934444952032892,0.8928143675189752,0.8930885797302893,0.8934444952032892,0.8935148570782963,0.8925990275073239,0.8935642015396376,0.8935148570782963,0.9755314282513513,0.9847144381783296,0.9710080285459411,0.9875884658127156,0.9800971693335084,0.9818570896911053,0.857230298393267,0.9150040994807325,0.8830390920554855,0.8993553008595988,0.8328873030032709,0.931207120341183,0.8568173186479301,0.9152389945591078,0.8945281522601111,0.8929542862156707,0.8221574344023324,0.9386644530529422,0.061225833675456705,0.05350179834581843,0.6571954940378234,0.20643145319300474,0.6652061238053388,0.19404155779629945
20,0.05328627552788165,0.41193454993430095,0.4190619509713877,5.120000000000001e-05,0.9830429382668189,0.9830543317555975,0.9830813005649609,0.9830429382668189,0.8913316582914573,0.8909785125545997,0.8909191150873986,0.8913316582914573,0.8932888939102926,0.8926687855649907,0.8929731192464836,0.8932888939102926,0.9779252336448598,0.9862343081603394,0.9744463690376414,0.9884348496530455,0.9814290269935658,0.9840435429847414,0.8561928512053201,0.9126703685007572,0.8706008913477793,0.9035892776010904,0.8422539399345822,0.9219358427591322,0.8582789406557131,0.9144280860702152,0.8842170350904313,0.898513309000267,0.8338192419825073,0.9309168050175245,0.05613221543405308,0.04914146678334256,0.6264261700131971,0.24172279686393702,0.6400917921048989,0.22325893178183054
21,0.04940325066754389,0.4278061225595078,0.4361768041528722,4.0960000000000014e-05,0.9840910885687005,0.9841020538433577,0.9841294389592734,0.9840910885687005,0.8924166285975331,0.8919379746122773,0.8919916188312281,0.8924166285975331,0.8933453847022935,0.8925267234821189,0.8932417487629132,0.8933453847022935,0.9792916549855154,0.987084440714319,0.9757173981862535,0.9893447985793065,0.9828921945637697,0.9848343877930777,0.8568171454628363,0.9138388365498948,0.8763992537313433,0.9017148014440434,0.8380909901873327,0.9262933432226961,0.8571644726887577,0.914901289101235,0.8910034602076125,0.8946579689703809,0.825801749271137,0.936081903707803,0.05168253016752114,0.04597160307639236,0.6673895734483781,0.23542368305388137,0.6944090117816814,0.20711935254346048
22,0.044141663519073976,0.4533726978568848,0.4631886743459442,4.0960000000000014e-05,0.9861945682841206,0.986203484558516,0.9862268298467707,0.9861945682841206,0.8934444952032892,0.8925908368737356,0.8933101750402141,0.8934444952032892,0.8934583662862954,0.8923279495866667,0.8939247764448799,0.8934583662862954,0.9820255175959247,0.9887937715980676,0.9786683061330949,0.9909130196105913,0.9854058414151456,0.9866835690360998,0.8559073359073359,0.9154661592824137,0.8904241645244216,0.8951098511693835,0.823966696402022,0.9367698868904135,0.8555232112762372,0.9156152125279642,0.9015175976751695,0.889120611748349,0.8139941690962099,0.9437373178380373,0.046372881091686836,0.04115394747841659,0.7621185989591522,0.20250411778165406,0.7768689360968503,0.18685237438684063
23,0.04156960497012062,0.4580267503170076,0.47408231314043986,4.0960000000000014e-05,0.9869196585614496,0.9869267171915599,0.9869438193080623,0.9869196585614496,0.892987665600731,0.892202792633733,0.8927578719875554,0.892987665600731,0.8917636425262682,0.8906750897573472,0.8920633346128466,0.8917636425262682,0.9829598593393438,0.9893861192343093,0.9801548074232957,0.9911529214033941,0.9857810125869928,0.987625604763677,0.8557129658145981,0.9149573425304048,0.8874161609709358,0.8960888888888889,0.8261968480523342,0.9346374930465419,0.8535616019565881,0.9141577060931899,0.897172236503856,0.8888308067607598,0.8139941690962099,0.9409703006825308,0.04305293053867073,0.03902092938559181,0.761774447483375,0.2141286271330698,0.7849937298459866,0.20116149262591665
24,0.038356696383844174,0.4667602455360043,0.4872706582176929,4.0960000000000014e-05,0.9882262568829733,0.9882325282354175,0.9882485969296433,0.9882262568829733,0.8922453174965738,0.891364588361386,0.8921120948595433,0.8922453174965738,0.8934583662862954,0.8922682638634745,0.8940623990547352,0.8934583662862954,0.9846614291058735,0.9904465648410286,0.9818880453638246,0.9921920590088934,0.9874505243017127,0.9887072013397842,0.8541843752414806,0.9145496535796767,0.8893000804505229,0.8938656280428432,0.8217365447517098,0.9362136102354904,0.8551904176904177,0.9157283288650581,0.9034717715768981,0.8881088576876408,0.8118075801749272,0.9451208264157904,0.04036464665102166,0.03534587041705573,0.787378384070336,0.20910796440802043,0.821238255044279,0.19468407374141472
25,0.035617909317481974,0.48523679250394336,0.5017191380811215,3.2768000000000016e-05,0.9895687507627806,0.9895734499022703,0.9895851470255181,0.9895687507627806,0.8917313841936958,0.8906690426512691,0.8918625962482734,0.8917313841936958,0.8909162806462546,0.8895836683547487,0.8917263540365458,0.8909162806462546,0.9864044239424363,0.9915382061928917,0.9840564558285415,0.9930128661246486,0.9887636234031777,0.9900679196129513,0.8524743230625583,0.9144867400324734,0.8942213516160626,0.8903917091164588,0.8144513826940232,0.9399221212683108,0.851106484694271,0.9139291285937152,0.9034211818628254,0.8843267489001984,0.8045189504373178,0.9455819959417082,0.03724539526353735,0.03300932183981352,0.8329943261932635,0.20182862488487127,0.8562959837693987,0.1870605905307457
26,0.03338102397538331,0.4773489608918221,0.49315182975612376,3.2768000000000016e-05,0.9897769450008256,0.9897816398454421,0.9897936112510034,0.9897769450008256,0.8923024211968935,0.8914743076880595,0.8921046052006423,0.8923024211968935,0.8928934583662863,0.8917570479407848,0.893345844509053,0.8928934583662863,0.9866763973876757,0.9917068511659328,0.9842819541152532,0.9932107694461294,0.9890825188992478,0.9902074804614812,0.8545650832819247,0.9144903881030105,0.887696251201538,0.8948535936113576,0.8238180196253345,0.9350083441498238,0.8547571625555386,0.9151677852348993,0.9007103648692283,0.8886861313868614,0.813265306122449,0.9432761483121196,0.034638723141915344,0.030908475380066202,0.8013987672393736,0.21413506754586284,0.8231110992009885,0.198881343778755
27,0.030585064918004355,0.4885717565036354,0.4966047653208047,3.2768000000000016e-05,0.990961498424185,0.9909656650950033,0.9909771741451764,0.990961498424185,0.8907606212882595,0.8899613429766107,0.8904922697106574,0.8907606212882595,0.893062930742289,0.8919894026386175,0.8933889729806622,0.893062930742289,0.9882203239177013,0.9926677421421375,0.9858129550121336,0.9941789251426105,0.9906394792624135,0.9911611462597693,0.8527215336053584,0.9131835715906512,0.884240779179307,0.8943906124988887,0.8233719892952721,0.9327832375301317,0.8553305311425297,0.9151843720596801,0.8989558232931727,0.8898666899015422,0.8157434402332362,0.9419848736395499,0.03188352002933143,0.0283587453621995,0.8124104182850029,0.22550613061479374,0.8213721525747263,0.20844867539459042
28,0.028789891499883466,0.4965338764968339,0.5113334686267768,3.2768000000000016e-05,0.9916219766966036,0.9916254866425797,0.991635056236701,0.9916219766966036,0.8924166285975331,0.8916047050979655,0.892202904994938,0.8924166285975331,0.8930064399502881,0.8919382151225229,0.893319130983365,0.8930064399502881,0.9890786579944785,0.9932044884150212,0.986889777014156,0.9945770697517115,0.9912772702545536,0.9918356903609974,0.8548088779284834,0.9145500725689405,0.88736,0.8952228733795063,0.8245614035087719,0.9347302058223623,0.8552872860635696,0.9151281591683097,0.8986833654463712,0.8899250479344605,0.8158892128279883,0.9418004058291828,0.02984256772495328,0.026904182566688695,0.82521854031939,0.23089936776955586,0.8472712300123281,0.21292458157321173
29,0.027644669667398643,0.504536742677205,0.5187560959113356,2.6214400000000015e-05,0.9918086335996784,0.9918121227864606,0.9918218790342122,0.9918086335996784,0.8927592507994518,0.8919689130455066,0.8925298620296296,0.8927592507994518,0.8915376793582646,0.890434923198486,0.8918561166069913,0.8915376793582646,0.9893223780870118,0.9933557332277394,0.9870961718020541,0.994751758161016,0.991558648633439,0.9919636211388165,0.8553827198521484,0.9147835556765587,0.887220447284345,0.8958407394241024,0.8257508177222718,0.9345447802707213,0.8531885609420401,0.9140016124697662,0.8972338372467031,0.8884535005224661,0.813265306122449,0.9410625345877145,0.028837497515706433,0.025543147945400635,0.8328580105461288,0.23750951541275583,0.8609645324526355,0.21659968408223773
30,0.025715836539483596,0.5097901295885859,0.5314902691581992,2.6214400000000015e-05,0.9928783212365302,0.9928807921671399,0.9928874145495298,0.9928783212365302,0.8923595248972134,0.8915681435127374,0.8921214685309038,0.8923595248972134,0.8915941701502655,0.8905217408199008,0.8918546096187144,0.8915941701502655,0.9907128279064542,0.9942249027781012,0.9888982338099243,0.9953606565020748,0.9925340936802416,0.9930917379977671,0.8548548548548549,0.9144620411126742,0.8865995847308736,0.8955648386810061,0.8253047873922094,0.9341739291674392,0.8534331322080501,0.9139886154811528,0.8963580940157228,0.8890051443020316,0.8144314868804665,0.9404168972514296,0.026958848506109703,0.023604541026705176,0.846467773888962,0.24065056108457097,0.8760965389839839,0.22515293761555638
31,0.02389061545735951,0.5105078193002119,0.5335068937991652,2.6214400000000015e-05,0.9933306052709038,0.9933327902346076,0.9933386759101196,0.9933306052709038,0.8931018730013704,0.8923591590239383,0.8928309214826022,0.8931018730013704,0.8924415320302791,0.8914262517403886,0.8926273094371252,0.8924415320302791,0.9913017424604178,0.9945920143436778,0.989587617302875,0.9956642851315284,0.9930218162036429,0.9935220506140677,0.8561106840891621,0.9149632052330335,0.8862189688096753,0.8969540434627716,0.827980969372584,0.9337103652883367,0.8548559231590181,0.9145651978820785,0.8959731543624161,0.890510311080042,0.8173469387755102,0.939955727725512,0.02453185753734492,0.022400212247317672,0.8404028810614693,0.2450920140418811,0.8716363097703184,0.230078660676788
32,0.022825143970014488,0.5134490241929242,0.5297988217141774,2.6214400000000015e-05,0.9936895608537399,0.9936919388314392,0.993699223529062,0.9936895608537399,0.8915600730927364,0.8909827698731514,0.8911483597775527,0.8915600730927364,0.8916506609422664,0.8908450539084357,0.8914843908469883,0.8916506609422664,0.9917720511836452,0.994882245058368,0.9897985874967303,0.9961175688752608,0.9937533999887449,0.9936499813918869,0.8550934757726059,0.9133628358957981,0.8783508386894497,0.8991287164286356,0.8330359797799584,0.9280548859632858,0.8550483675937122,0.9134944975644957,0.8877903327055869,0.8938217122683142,0.8246355685131196,0.934052757793765,0.023758032759053443,0.02110541918861825,0.8121034716917337,0.2742973765420754,0.8323087603934775,0.2574451112387968
33,0.02179958248667558,0.5398547705475627,0.5592105959905849,2.0971520000000012e-05,0.9940197999899493,0.9940217802105825,0.9940275444648176,0.9940197999899493,0.8916171767930562,0.8906384093672297,0.891605256384254,0.8916171767930562,0.8912552253982601,0.8899808662473777,0.891941256012031,0.8912552253982601,0.992200739665746,0.9951508024752447,0.990466576940332,0.9962352996025502,0.9939409855746685,0.9940686639374767,0.8527997518225531,0.9142340713962946,0.8913748378728924,0.8917489421720733,0.8174249182277729,0.9378824402002596,0.8518661023470565,0.9140970145923513,0.902200488997555,0.885449987032074,0.8068513119533528,0.9446596568898727,0.022736078654116858,0.02011132899184771,0.919690740166529,0.2347218307733546,0.9503377402866525,0.21300610078365675
34,0.02107936542335401,0.5483808641348761,0.5712858895611163,2.0971520000000012e-05,0.994285427121248,0.9942870879567892,0.9942916605734576,0.994285427121248,0.8915600730927364,0.8904530850257102,0.8917654011728972,0.8915600730927364,0.8905208451022484,0.889151696213822,0.8913997520614287,0.8905208451022484,0.9925455601131277,0.9953668133454402,0.9910235071905448,0.9963178746213004,0.9940722954848149,0.9944175660588016,0.8519990647650222,0.914432478709503,0.8953316953316953,0.8895415095993688,0.8126672613737734,0.9407565362506953,0.8503937007874016,0.9136748329621381,0.9038398424680013,0.8835286009648519,0.8029154518950438,0.9459509315624424,0.021892585602819647,0.019451891898322818,0.9565896869137667,0.22420219979793057,0.980271106471108,0.20706353831504073
35,0.019782556273588686,0.5453087755020702,0.5633285702884352,2.0971520000000012e-05,0.994831039607159,0.994832377813755,0.9948360254104867,0.994831039607159,0.8925879396984925,0.8916238742910907,0.8925866694660423,0.8925879396984925,0.8921025872782736,0.8908443148589303,0.8927970670640875,0.8921025872782736,0.9932561537596942,0.9958096169291476,0.9918997287438032,0.9966564924625457,0.9946162936839933,0.9949641793822106,0.854152128401954,0.9149907353007638,0.8925619834710744,0.8926020633101137,0.8189116859946476,0.9385314296310031,0.8530543160486229,0.9147549763456218,0.9032258064516129,0.8861985472154964,0.8081632653061225,0.945213060320974,0.02131240945736613,0.018011135389225198,0.9343043185595045,0.2337471402365802,0.9557043473244579,0.21258918512612582
36,0.019049171474804883,0.5448499748482449,0.56676557246958,2.0971520000000012e-05,0.9949243680586964,0.9949257984693501,0.9949299678781618,0.9949243680586964,0.8927592507994518,0.8918340688375481,0.8927043395829165,0.8927592507994518,0.8910857530222573,0.889815622538229,0.8917521718695076,0.8910857530222573,0.993378723882484,0.9958849652812134,0.9919016982120147,0.9968074570346636,0.994860154945694,0.9949641793822106,0.854598947042428,0.9150533743441288,0.8915993537964458,0.8933933933933934,0.8205471305382099,0.9377897274244391,0.851669487613479,0.9139516201017585,0.9017595307917888,0.8854202698028364,0.8068513119533528,0.9443829551743221,0.019329113566205588,0.017971494080874763,0.925276180634788,0.23980198857738078,0.9527867938175665,0.22205181422842932
37,0.01837541121653126,0.5419256910715761,0.5568851268758829,1.677721600000001e-05,0.995326398311473,0.995327468010527,0.9953303418238759,0.995326398311473,0.8926450433988122,0.8919029070005066,0.8923634178607298,0.8926450433988122,0.891311716190261,0.8903286846613532,0.8913971224537991,0.891311716190261,0.9939014679569449,0.9962115701325077,0.9927018226730042,0.9969599906819637,0.9951040162073946,0.9954642724227764,0.8555179833999386,0.9145920407050699,0.8854597518294623,0.8966684482451452,0.8275349390425215,0.9332468014092342,0.8535768645357686,0.9135824649658641,0.8929936305732484,0.8903869725091927,0.8174927113702624,0.9380188157166575,0.019339122048177577,0.0169092701976572,0.8900401806526318,0.2629850225837773,0.9052927828470794,0.24431080134984637
38,0.01826703970172567,0.5512259469804507,0.5774983954542762,1.677721600000001e-05,0.9952546071949057,0.9952556933255887,0.9952585834253621,0.9952546071949057,0.8928163544997716,0.8918582832941432,0.8928135470102018,0.8928163544997716,0.8921590780702745,0.8909035138144438,0.8928501164590329,0.8921590780702745,0.993807788509279,0.9961533761253266,0.9926082562970171,0.9969017529555646,0.9950102234144328,0.9954061220692222,0.85448484378634,0.9151638418079096,0.8927587882715049,0.8928476938001587,0.8193577163247101,0.9386241424068237,0.853142549426879,0.9147958045079223,0.9032415702883205,0.8862751880999741,0.8083090379008746,0.945213060320974,0.01882995887696337,0.017001183332721576,0.9429780301651445,0.23901105933739175,0.97079568108893,0.22377286912939912
39,0.01734251414058198,0.5553109668035277,0.5716528786453011,1.677721600000001e-05,0.9956207418893986,0.995621721009455,0.9956244219114994,0.9956207418893986,0.8928734582000913,0.8919765462740209,0.8927812909221554,0.8928734582000913,0.8917636425262682,0.8906711245941753,0.8920713197514089,0.8917636425262682,0.9942853930900097,0.9964502275345958,0.9931131280995602,0.9971813925318549,0.9954604288206494,0.9957201339784146,0.8549110595514308,0.9150900697021815,0.8908768536428111,0.8939688715953308,0.8217365447517098,0.937233450769516,0.8535392141874331,0.9141653973658275,0.8972999035679846,0.8887630662020906,0.8138483965014577,0.9410625345877145,0.018329830733640546,0.015873759101495282,0.9355067334043375,0.25031797794656374,0.9504610324976965,0.2328049654656622
40,0.017271645779381794,0.5681026279109425,0.5880034960753338,1.677721600000001e-05,0.9953981894280401,0.9953994700816291,0.9954034227174623,0.9953981894280401,0.8913316582914573,0.8902633533577655,0.8914574121406817,0.8913316582914573,0.8909162806462546,0.8895415018049857,0.8918344686232038,0.8909162806462546,0.9939967220791384,0.9962691562239903,0.9925373134328358,0.997180374474233,0.9954604288206494,0.9953596017863788,0.8519181386662517,0.9141748973977359,0.8937142857142857,0.8900500570826381,0.8138566755872733,0.9396439829408493,0.8508765155610472,0.9140057893564908,0.904746263754311,0.8836648583484027,0.8030612244897959,0.9465043349935436,0.01810203373620133,0.01601143803088627,0.9871809646298272,0.23107322662911864,1.0012232125321003,0.21551368222904524
41,0.01638583114006674,0.5617466977792769,0.5828412746880745,1.3421772800000009e-05,0.9959007272440108,0.9959017812833388,0.9959051159344883,0.9959007272440108,0.8916171767930562,0.8906304114377662,0.891617753039488,0.8916171767930562,0.8915941701502655,0.8903607774745381,0.8922012809292382,0.8915941701502655,0.9946517051787604,0.9966768127666261,0.9933026527481573,0.9975186104218362,0.9960044270198278,0.9958364346855229,0.8527540729247479,0.9142495707960604,0.8916288124594419,0.8916108565385971,0.8171275646743978,0.9380678657519006,0.852532083301314,0.914295922468849,0.901511457825451,0.8863105030738592,0.808600583090379,0.9441062534587714,0.01674091938323418,0.015335769232772632,0.9610920458276203,0.24052716636367183,0.9696038826073553,0.22932593410036395
42,0.015806828871818317,0.5609575380005756,0.5818863976555293,1.3421772800000009e-05,0.9959940556955482,0.9959949796564175,0.9959977371692966,0.9959940556955482,0.892188213796254,0.891285564693684,0.8920830346673153,0.892188213796254,0.8908597898542537,0.8897300618767614,0.8912028316299337,0.8908597898542537,0.994772735788961,0.9967527555022754,0.9935627537940456,0.9975073962774011,0.9959856684612355,0.9959992556754745,0.8539829853054911,0.9145469358196795,0.8899097356544166,0.8934382737884683,0.820844484091585,0.936677174114593,0.852157943067034,0.9135028653295129,0.8969072164948454,0.8875935270575953,0.8116618075801749,0.9409703006825308,0.01676033183146234,0.014271925990640639,0.9505935149213326,0.24772508182006964,0.9597266993917791,0.23860882009945011
43,0.015482663788628793,0.5456125173818145,0.5583819700370278,1.3421772800000009e-05,0.9960802050354289,0.996081150658935,0.9960841031002465,0.9960802050354289,0.8921311100959343,0.8917940791657197,0.891729892566364,0.8921311100959343,0.8910857530222573,0.8905321834276386,0.8906986672995904,0.8910857530222573,0.9948854375480076,0.9968224777689837,0.993619608943774,0.9976120585220389,0.9961544954885666,0.996034145887607,0.8573370591345064,0.9132809989441307,0.8712202609363009,0.9045194143857416,0.8438893844781445,0.9222139810865937,0.8558396889487064,0.9124829777576032,0.8785692354927848,0.8983732570611369,0.8342565597667638,0.9270429809998155,0.016038437551015628,0.015260153334510914,0.8307655528390213,0.31939897310023324,0.8343102715475003,0.30282062413503547
44,0.015747442036092574,0.5921798615681085,0.6199713304963789,1.3421772800000009e-05,0.9958935481323541,0.9958945822780984,0.9958978036702385,0.9958935481323541,0.892188213796254,0.8909233792696816,0.8927512692252334,0.892188213796254,0.8886566489662185,0.8870506677691259,0.8900548363657291,0.8886566489662185,0.9946421880854253,0.9966710509468881,0.9933209855755739,0.9974953985228676,0.995966909902643,0.9958480647562337,0.8519447929736512,0.9152298850574713,0.9014271490209094,0.8873411109176389,0.8076122509663991,0.9449286111626182,0.8466982966477405,0.9125826052246419,0.9076204769051193,0.8789406236651004,0.7934402332361516,0.9489024165283159,0.016270402927857336,0.014571455969964368,1.0536788129315213,0.2187775421888269,1.083278694083648,0.2041500517649443
45,0.014553123140302115,0.5676963316381332,0.5834640540479739,1.0737418240000008e-05,0.9963171157201008,0.9963177632947902,0.9963194748381137,0.9963171157201008,0.8916171767930562,0.8908754992420409,0.8913128318142607,0.8916171767930562,0.8915941701502655,0.8906310819256992,0.8916559369337366,0.8915941701502655,0.9951928933534488,0.9970151685295195,0.9942705212702216,0.9975898003143738,0.9961169783713819,0.996441198362486,0.854179471419791,0.9137586332242821,0.8837837837837837,0.8960078417394404,0.8264942016057092,0.9322269608752086,0.8540573427637083,0.9137721860256123,0.8928287486086818,0.8909138701480768,0.8185131195335277,0.9378343479062904,0.01526952184258251,0.013285511584499629,0.9315400325349006,0.2776104550024341,0.9409984323890447,0.25849877115438824
46,0.014630697917283275,0.5785110904752201,0.6031968010009284,1.0737418240000008e-05,0.9966329966329966,0.9966334813216465,0.9966346785962401,0.9966329966329966,0.8918455915943353,0.8909164732643065,0.8917670618448577,0.8918455915943353,0.891311716190261,0.8900359500038423,0.8920043191061527,0.891311716190261,0.995604457398851,0.9972714632287492,0.9948492227008803,0.9977416388251865,0.9963608396330826,0.9968017305545218,0.8533828766062858,0.9143219035555957,0.8901808785529716,0.8927561837455831,0.8195063931013976,0.9369553124420545,0.8519316607665076,0.9141454707719768,0.9023475709162048,0.8854598893499308,0.8068513119533528,0.9447518907950563,0.015213806352176524,0.013489438499828135,0.9852503234034647,0.25348192898894445,1.0093983007792433,0.23586165647471458
47,0.01406063561195846,0.5885957824742756,0.611274651555931,1.0737418240000008e-05,0.9965468472931159,0.9965474911397485,0.9965493320863393,0.9965468472931159,0.8924166285975331,0.8913122627730268,0.8926538980974522,0.8924166285975331,0.8917071517342673,0.8903381345338758,0.8926603137038344,0.8917071517342673,0.9954930052565989,0.9972012591424565,0.9945145467480436,0.9978108734382096,0.9964733909846367,0.9965923892817269,0.8531337698783911,0.9151198414128672,0.8967551622418879,0.8900964066608238,0.8135593220338984,0.9415909512330799,0.8519348111531629,0.9146368615576435,0.9060292426482668,0.8842014636246234,0.8039358600583091,0.947242206235012,0.014517925038010976,0.013085280000360324,1.0278611871940286,0.23687243783142944,1.0494980318625624,0.22220880721163536
48,0.013714222299394134,0.5955899695573522,0.6174851575014673,1.0737418240000008e-05,0.9965827428513996,0.996583446489474,0.9965856111322271,0.9965827428513996,0.8912174508908177,0.8901028394888022,0.8914223455459512,0.8912174508908177,0.8908032990622529,0.8894566811746888,0.8916419865101665,0.8908032990622529,0.9955403151760451,0.9972301748015735,0.9944595226953673,0.9979037592583966,0.9966234594533756,0.9965574990695943,0.851508301504404,0.9141698580761433,0.894969687039161,0.8892102725918135,0.8120725542670235,0.9405711106990543,0.8508832831906195,0.9138630185820596,0.903653940684909,0.8840417277351496,0.8039358600583091,0.9457664637520753,0.01428754668204336,0.012589063936280547,1.039761400403644,0.24085599607275546,1.0590767187806445,0.22354134308739698
49,0.013568974985469337,0.5740853882968671,0.5913986284212128,8.589934592000007e-06,0.9967693997544744,0.9967701448842077,0.9967727251585469,0.9967693997544744,0.8919597989949749,0.8912204660516024,0.891660672858236,0.8919597989949749,0.8922155688622755,0.891190373059365,0.8924109546804142,0.8922155688622755,0.9957844643459363,0.9973812544373188,0.9945732517449802,0.9981363710485243,0.9969986306252228,0.9966272794938593,0.854640442532268,0.9140312613595056,0.8842607313195548,0.8962751737658171,0.8269402319357716,0.9325050992026701,0.8545066341314626,0.9144010767160161,0.8959066197633515,0.8901991614255765,0.8167638483965015,0.939955727725512,0.013696132634270834,0.012926668615439275,0.9472830834177633,0.2761240841901399,0.9507828929577954,0.25818154681307665
50,0.013085196141300694,0.5857554151076277,0.6047962588073843,8.589934592000007e-06,0.9969488775458925,0.996949360009955,0.9969507030244182,0.9969488775458925,0.8924737322978529,0.8915793196753798,0.8923658611521373,0.8924737322978529,0.8910857530222573,0.8899382378538455,0.8914761700377575,0.8910857530222573,0.9960171310223321,0.997527330273041,0.9951870856586389,0.998044123639327,0.9968485621564839,0.9970110718273167,0.8544034640068043,0.9147616676474583,0.8901240534879974,0.8937638213180009,0.8214391911983349,0.9367698868904135,0.8523510491652627,0.9137205763895104,0.8978702807357212,0.8874304589707928,0.8112244897959183,0.9416159380188157,0.013782090742200818,0.011814243218929875,0.9909150422942163,0.263943705896647,0.9959909337863792,0.24902420267130115
